Vernier Format 2
Untitled.cmbl 3/17/2022 11:41:28 .
Latest
Time	Potential 1	EKG	Potential 2
t	Pot 1	EKG	Pot 2
s	mV	mV	V

0	0.299285888672	0.0138065973855	2.9280090332
0.005	0.220169067383	0.0558191486761	2.93167114258
0.01	0.127624511719	0.106189021628	2.93167114258
0.015	0.0485076904297	0.135536418265	2.9328918457
0.02	0.005859375	0.135593016761	2.93167114258
0.025	-0.0135955810547	0.112751417312	2.93411254883
0.03	-0.0354919433594	0.0780905538202	2.93655395508
0.035	-0.0671539306641	0.039634349998	2.93411254883
0.04	-0.0695953369141	0.00236377310578	2.93533325195
0.045	-0.0622711181641	-0.0287942605073	2.93533325195
0.05	-0.0574645996094	-0.0504116998617	2.93533325195
0.055	-0.0342712402344	-0.0614966548731	2.93533325195
0.06	-0.0196990966797	-0.0623222538587	2.93655395508
0.065	-0.0245819091797	-0.055760653519	2.9377746582
0.07	-0.0282440185547	-0.0467239382877	2.94021606445
0.075	-0.0258026123047	-0.0385879569785	2.94021606445
0.08	-0.00993347167969	-0.0316078922633	2.94143676758
0.085	0.007080078125	-0.0241226970386	2.94143676758
0.09	0.007080078125	-0.0154684911471	2.94387817383
0.095	0.004638671875	-0.0071640487156	2.94143676758
0.1	-0.00505065917969	-0.00123625905536	2.94387817383
0.105	-0.00627136230469	0.00136591290032	2.94387817383
0.11	-0.00382995605469	0.00140534754325	2.94509887695
0.115	-0.000244140625	0.000511479683094	2.94509887695
0.12	0.004638671875	-7.73516287056E-006	2.94509887695
0.125	0.00830078125	0.000537983906823	2.94509887695
0.13	0.016845703125	0.0024640754862	2.94509887695
0.135	0.0509490966797	0.00724421085233	2.94509887695
0.14	0.0849761962891	0.0176563609178	2.94509887695
0.145	0.116638183594	0.0350904181322	2.94509887695
0.15	0.144638061523	0.0585435426195	2.94631958008
0.155	0.167831420898	0.0857431241103	2.94631958008
0.16	0.186065673828	0.114038962864	2.9475402832
0.165	0.173858642578	0.139841779231	2.9475402832
0.17	0.177520751953	0.159541028961	2.94868469238
0.175	0.171417236328	0.172096603253	2.95112609863
0.18	0.132507324219	0.176632808464	2.95112609863
0.185	0.0777282714844	0.169989345216	2.95478820801
0.19	0.0277557373047	0.149919063679	2.95600891113
0.195	-0.0196990966797	0.11762194208	2.95600891113
0.2	-0.0476989746094	0.0772958466999	2.95600891113
0.205	-0.0586853027344	0.0351828997877	2.95722961426
0.21	-0.0538024902344	-0.00211792816089	2.95967102051
0.215	-0.0525817871094	-0.0301690794649	2.95967102051
0.22	-0.0562438964844	-0.048325986258	2.96089172363
0.225	-0.0525817871094	-0.0583789656694	2.96089172363
0.23	-0.0599060058594	-0.0627602259031	2.96211242676
0.235	-0.0854644775391	-0.0652294809912	2.96211242676
0.24	-0.141464233398	-0.071582109582	2.96211242676
0.245	-0.169464111328	-0.0863098784573	2.96333312988
0.25	-0.0720367431641	-0.103111208979	2.96211242676
0.255	0.248168945313	-0.0953630591197	2.95967102051
0.26	0.91535949707	-0.0121543853959	2.95722961426
0.265	1.65922546387	0.203457381115	2.95478820801
0.27	2.25584411621	0.571333922755	2.95112609863
0.275	2.23265075684	1.03450502614	2.95112609863
0.28	1.48023986816	1.44974861087	2.95356750488
0.285	0.625595092773	1.65488072043	2.95845031738
0.29	0.0289764404297	1.57773920871	2.96211242676
0.295	-0.153594970703	1.27311194458	2.96211242676
0.3	-0.227905273438	0.865020564067	2.96333312988
0.305	-0.257125854492	0.464721745591	2.96333312988
0.31	-0.257125854492	0.135997363666	2.96333312988
0.315	-0.258346557617	-0.0982715532663	2.96333312988
0.32	-0.247360229492	-0.242462934748	2.95967102051
0.325	-0.226684570313	-0.313834718488	2.95600891113
0.33	-0.224243164063	-0.333695840519	2.95967102051
0.335	-0.212036132813	-0.322816280663	2.95600891113
0.34	-0.192581176758	-0.296689268732	2.95600891113
0.345	-0.163360595703	-0.264178403081	2.95600891113
0.35	-0.153594970703	-0.230483025144	2.95112609863
0.355	-0.136581420898	-0.199388928061	2.95234680176
0.36	-0.113464355469	-0.172225210474	2.95112609863
0.365	-0.0927124023438	-0.148131892113	2.95112609863
0.37	-0.0732574462891	-0.126115932383	2.94990539551
0.375	-0.0476989746094	-0.105252818921	2.95112609863
0.38	-0.0258026123047	-0.0845407738971	2.94868469238
0.385	-0.0172576904297	-0.0641314737203	2.9475402832
0.39	0.004638671875	-0.0448285157561	2.94868469238
0.395	0.016845703125	-0.0266540290777	2.94990539551
0.4	0.0387420654297	-0.00924172367302	2.94990539551
0.405	0.0777282714844	0.00896456114322	2.94868469238
0.41	0.125183105469	0.0309980833845	2.94990539551
0.415	0.173858642578	0.0592704516826	2.94990539551
0.42	0.233520507813	0.0948266064802	2.94631958008
0.425	0.306610107422	0.138525802534	2.9475402832
0.43	0.365051269531	0.190357970643	2.9475402832
0.435	0.425933837891	0.248197958436	2.9475402832
0.44	0.491622924805	0.30966321126	2.94509887695
0.445	0.533050537109	0.372349867194	2.94509887695
0.45	0.550064086914	0.431707312997	2.94509887695
0.455	0.584167480469	0.483528461585	2.94509887695
0.46	0.578063964844	0.525730556639	2.94387817383
0.465	0.559829711914	0.555583388371	2.94509887695
0.47	0.518478393555	0.569982506675	2.94387817383
0.475	0.4794921875	0.56766936594	2.94387817383
0.48	0.410064697266	0.548856335144	2.94387817383
0.485	0.317520141602	0.512926591008	2.9426574707
0.49	0.233520507813	0.4595922892	2.94387817383
0.495	0.148300170898	0.39158911896	2.94387817383
0.5	0.0777282714844	0.313926656072	2.9426574707
0.505	0.0338592529297	0.233378129936	2.94143676758
0.51	0.009521484375	0.15784772946	2.94387817383
0.515	-0.0123748779297	0.0934433527594	2.94387817383
0.52	-0.0342712402344	0.0422421494633	2.9426574707
0.525	-0.0403747558594	0.00367052139518	2.94021606445
0.53	-0.0452575683594	-0.0233707161171	2.94143676758
0.535	-0.0501403808594	-0.0407086473797	2.94021606445
0.54	-0.0428161621094	-0.0504129332421	2.94021606445
0.545	-0.0330505371094	-0.053671182343	2.93899536133
0.55	-0.0270233154297	-0.051641018305	2.93899536133
0.555	-0.0135955810547	-0.0457585238124	2.9377746582
0.56	-0.00505065917969	-0.0371557559353	2.93655395508
0.565	-0.002685546875	-0.0272856312926	2.93533325195
0.57	-0.00749206542969	-0.0182228385625	2.93655395508
0.575	-0.00146484375	-0.0112857466242	2.93533325195
0.58	0.002197265625	-0.00617088301983	2.93533325195
0.585	-0.00627136230469	-0.0026707921714	2.93411254883
0.59	-0.00627136230469	-0.00122313474835	2.93411254883
0.595	-0.00627136230469	-0.00144269445059	2.93533325195
0.6	-0.0160369873047	-0.00289220307805	2.93411254883
0.605	-0.0160369873047	-0.00558015361718	2.93411254883
0.61	0.002197265625	-0.00799051196669	2.93533325195
0.615	0.0265350341797	-0.00701446736566	2.93411254883
0.62	0.0472869873047	-0.000509060952064	2.93411254883
0.625	0.0618591308594	0.0112249631343	2.9328918457
0.63	0.0777282714844	0.0263991142026	2.9328918457
0.635	0.105728149414	0.0438931862614	2.9328918457
0.64	0.139831542969	0.0641887842841	2.93167114258
0.645	0.151962280273	0.0871149166175	2.93167114258
0.65	0.159286499023	0.110134638674	2.93167114258
0.655	0.161727905273	0.130300622316	2.93167114258
0.66	0.150741577148	0.145398243053	2.93045043945
0.665	0.120300292969	0.152911936026	2.93167114258
0.67	0.0704040527344	0.14969203454	2.93167114258
0.675	0.0289764404297	0.133868330715	2.93167114258
0.68	-0.0209197998047	0.106339958772	2.93167114258
0.685	-0.0574645996094	0.069934206599	2.93167114258
0.69	-0.0732574462891	0.0294781911099	2.93411254883
0.695	-0.0866851806641	-0.00926698585382	2.93411254883
0.7	-0.0914916992188	-0.0422103891615	2.9328918457
0.705	-0.0939331054688	-0.0673969937211	2.9328918457
0.71	-0.0914916992188	-0.0844554557395	2.9328918457
0.715	-0.0879058837891	-0.0940906008173	2.93167114258
0.72	-0.0988159179688	-0.0983567541715	2.9328918457
0.725	-0.136581420898	-0.10177851998	2.93167114258
0.73	-0.188919067383	-0.11055570767	2.93411254883
0.735	-0.154815673828	-0.125344927039	2.9328918457
0.74	0.014404296875	-0.131823429541	2.93167114258
0.745	0.529388427734	-0.0920759184005	2.92922973633
0.75	1.26234436035	0.0522049068938	2.92678833008
0.755	1.97454833984	0.345510312464	2.92190551758
0.76	2.20098876953	0.76795419175	2.9231262207
0.765	1.63244628906	1.20347713698	2.92434692383
0.77	0.813049316406	1.48525676136	2.9280090332
0.775	0.138610839844	1.50648606222	2.9328918457
0.78	-0.126815795898	1.28338514928	2.93167114258
0.785	-0.226684570313	0.921078428992	2.93533325195
0.79	-0.264373779297	0.533966503598	2.93655395508
0.795	-0.283905029297	0.19710227715	2.9328918457
0.8	-0.292449951172	-0.0568237880504	2.93411254883
0.805	-0.283905029297	-0.224398787077	2.9328918457
0.81	-0.280242919922	-0.318019995948	2.93411254883
0.815	-0.265594482422	-0.35658633464	2.9328918457
0.82	-0.247360229492	-0.358597839351	2.93045043945
0.825	-0.221801757813	-0.33872287696	2.92678833008
0.83	-0.208374023438	-0.307932612298	2.92556762695
0.835	-0.195022583008	-0.274421834456	2.92190551758
0.84	-0.173126220703	-0.242895308972	2.9182434082
0.845	-0.157257080078	-0.214793929451	2.91580200195
0.85	-0.140243530273	-0.190303419268	2.91213989258
0.855	-0.124374389648	-0.169074068755	2.9109954834
0.86	-0.114685058594	-0.150669993135	2.90855407715
0.865	-0.101257324219	-0.134805984734	2.90977478027
0.87	-0.0781402587891	-0.120366244299	2.90855407715
0.875	-0.0428161621094	-0.104909627674	2.90733337402
0.88	-0.0221405029297	-0.0865256994326	2.9061126709
0.885	-0.00505065917969	-0.0657688581117	2.9061126709
0.89	0.02294921875	-0.04385293026	2.90733337402
0.895	0.0424041748047	-0.0211417873272	2.9061126709
0.9	0.0691833496094	0.00209166909395	2.9061126709
0.905	0.116638183594	0.0268522132029	2.9061126709
0.91	0.176300048828	0.056160838613	2.90489196777
0.915	0.235961914063	0.092744132323	2.90733337402
0.92	0.309051513672	0.137783266886	2.90733337402
0.925	0.373596191406	0.191143523236	2.9061126709
0.93	0.423492431641	0.250378472988	2.90733337402
0.935	0.466064453125	0.311117302258	2.9061126709
0.94	0.49528503418	0.368965440955	2.90733337402
0.945	0.50260925293	0.419715146715	2.9061126709
0.95	0.480712890625	0.458622692991	2.90489196777
0.955	0.457595825195	0.481777829637	2.9061126709
0.96	0.403961181641	0.487295740547	2.90489196777
0.965	0.324844360352	0.47345648436	2.90489196777
0.97	0.243286132813	0.43911456197	2.90489196777
0.975	0.162948608398	0.386145424171	2.90489196777
0.98	0.0849761962891	0.319017775567	2.9012298584
0.985	0.0277557373047	0.243773862255	2.9012298584
0.99	-0.0135955810547	0.167638835411	2.9012298584
0.995	-0.0501403808594	0.0969737499589	2.89878845215
1	-0.0769195556641	0.0355237421969	2.89756774902
1.005	-0.0866851806641	-0.0146621057399	2.8963470459
1.01	-0.0927124023438	-0.0524618775627	2.89512634277
1.015	-0.0963745117188	-0.07837047799	2.89512634277
1.02	-0.0927124023438	-0.094096999403	2.89512634277
1.025	-0.0781402587891	-0.101072699715	2.89390563965
1.03	-0.0732574462891	-0.100718761489	2.89268493652
1.035	-0.0695953369141	-0.0955336437414	2.89268493652
1.04	-0.0440368652344	-0.0871870973803	2.8914642334
1.045	-0.0391540527344	-0.0760735772803	2.89268493652
1.05	-0.0525817871094	-0.0646398538222	2.8914642334
1.055	-0.0634918212891	-0.0566754212725	2.89268493652
1.06	-0.0634918212891	-0.0535129276106	2.8914642334
1.065	-0.0562438964844	-0.053464592088	2.8914642334
1.07	-0.0476989746094	-0.0538938445558	2.89268493652
1.075	-0.0452575683594	-0.0532434002898	2.89024353027
1.08	-0.0513610839844	-0.0518440932123	2.8914642334
1.085	-0.0489196777344	-0.0506725758787	2.8914642334
1.09	-0.0489196777344	-0.0498855783867	2.8914642334
1.095	-0.0538024902344	-0.0495455413785	2.89268493652
1.1	-0.0525817871094	-0.0498822637304	2.8914642334
1.105	-0.0367126464844	-0.0498702445969	2.89024353027
1.11	-0.00627136230469	-0.0467641593489	2.8914642334
1.115	0.01318359375	-0.038271344931	2.89024353027
1.12	0.0289764404297	-0.024768578385	2.89024353027
1.125	0.0716247558594	-0.00697144310594	2.89024353027
1.13	0.0861968994141	0.0149893385911	2.88902282715
1.135	0.0861968994141	0.0382574129399	2.89024353027
1.14	0.103286743164	0.0593354615409	2.88902282715
1.145	0.104507446289	0.0770800390272	2.88902282715
1.15	0.0861968994141	0.0899671305147	2.8914642334
1.155	0.0728454589844	0.0958382221076	2.89024353027
1.16	0.0363006591797	0.0934129549424	2.89024353027
1.165	-0.00993347167969	0.0812344200685	2.89024353027
1.17	-0.0342712402344	0.0594320296809	2.89024353027
1.175	-0.0538024902344	0.0316402778374	2.89024353027
1.18	-0.0793609619141	0.00192739212122	2.8914642334
1.185	-0.0975952148438	-0.0273478023107	2.88902282715
1.19	-0.0975952148438	-0.0538670811621	2.8914642334
1.195	-0.0975952148438	-0.0749786174592	2.8914642334
1.2	-0.107360839844	-0.0899854128147	2.89024353027
1.205	-0.0963745117188	-0.0996148524614	2.89024353027
1.21	-0.0988159179688	-0.104372243271	2.89268493652
1.215	-0.128036499023	-0.106922064683	2.89268493652
1.22	-0.182815551758	-0.113251344039	2.89268493652
1.225	-0.187698364258	-0.126898846653	2.8914642334
1.23	-0.0830230712891	-0.13977590786	2.88902282715
1.235	0.267623901367	-0.124289444794	2.88902282715
1.24	0.95068359375	-0.0290195392558	2.88536071777
1.245	1.68356323242	0.200915534198	2.88047790527
1.25	2.13041687012	0.574394362972	2.87925720215
1.255	1.89054870605	1.01352459646	2.88047790527
1.26	1.15034484863	1.36824764246	2.88536071777
1.265	0.403961181641	1.50221069732	2.88780212402
1.27	-0.0403747558594	1.37937245588	2.8914642334
1.275	-0.188919067383	1.07062251672	2.89268493652
1.28	-0.244918823242	0.690625073179	2.89268493652
1.285	-0.268035888672	0.332621314583	2.89268493652
1.29	-0.277801513672	0.046329014235	2.89268493652
1.295	-0.285125732422	-0.154171317492	2.8914642334
1.3	-0.282684326172	-0.276493980934	2.89268493652
1.305	-0.264373779297	-0.337063978775	2.89024353027
1.31	-0.243698120117	-0.353330618443	2.89024353027
1.315	-0.229125976563	-0.341382138202	2.88780212402
1.32	-0.214477539063	-0.314787893697	2.88536071777
1.325	-0.199905395508	-0.283202048674	2.88291931152
1.33	-0.187698364258	-0.252406351587	2.8816986084
1.335	-0.165802001953	-0.224873280341	2.8816986084
1.34	-0.141464233398	-0.200319294408	2.87925720215
1.345	-0.130477905273	-0.177998909555	2.87803649902
1.35	-0.117126464844	-0.158143445992	2.87925720215
1.355	-0.0988159179688	-0.140580764492	2.8768157959
1.36	-0.0756988525391	-0.124014738912	2.8768157959
1.365	-0.0489196777344	-0.106782829472	2.8768157959
1.37	-0.0294647216797	-0.0879685190912	2.87559509277
1.375	-0.00627136230469	-0.067747409313	2.87803649902
1.38	-0.00382995605469	-0.0474157417323	2.87803649902
1.385	0.009521484375	-0.0288703159195	2.87559509277
1.39	0.0533905029297	-0.011257285953	2.87803649902
1.395	0.105728149414	0.00972496679671	2.87803649902
1.4	0.150741577148	0.037421615337	2.87925720215
1.405	0.220169067383	0.0730800469247	2.8816986084
1.41	0.290740966797	0.117812019925	2.87925720215
1.415	0.355285644531	0.171443800857	2.88047790527
1.42	0.430816650391	0.232251208334	2.8816986084
1.425	0.498947143555	0.29845636316	2.88047790527
1.43	0.50993347168	0.365376709169	2.87925720215
1.435	0.491622924805	0.423612092453	2.8816986084
1.44	0.473388671875	0.464806335202	2.88291931152
1.445	0.45393371582	0.486593529282	2.88414001465
1.45	0.417388916016	0.490493728451	2.8865814209
1.455	0.377182006836	0.478753127468	2.88780212402
1.46	0.285934448242	0.451881723753	2.8865814209
1.465	0.173858642578	0.407083406516	2.88780212402
1.47	0.0826110839844	0.34297557585	2.88780212402
1.475	0.0375213623047	0.265531571581	2.88902282715
1.48	-0.0172576904297	0.184922588881	2.88902282715
1.485	-0.0659332275391	0.108251908405	2.89024353027
1.49	-0.0866851806641	0.0396905978846	2.89024353027
1.495	-0.103698730469	-0.0171760039687	2.89268493652
1.5	-0.118347167969	-0.0610003849386	2.8914642334
1.505	-0.117126464844	-0.0924037215153	2.8914642334
1.51	-0.102478027344	-0.111790839958	2.89268493652
1.515	-0.0988159179688	-0.120114013854	2.89268493652
1.52	-0.0975952148438	-0.120390000921	2.89268493652
1.525	-0.0975952148438	-0.116375789733	2.89268493652
1.53	-0.0975952148438	-0.110936024491	2.89390563965
1.535	-0.0975952148438	-0.105798939016	2.8914642334
1.54	-0.0818023681641	-0.101030094719	2.8914642334
1.545	-0.0732574462891	-0.095471039864	2.8914642334
1.55	-0.0659332275391	-0.0886943294837	2.8914642334
1.555	-0.0683746337891	-0.081611923669	2.89268493652
1.56	-0.0599060058594	-0.0751827701348	2.89268493652
1.565	-0.0695953369141	-0.0700395144572	2.89024353027
1.57	-0.0720367431641	-0.0670936757011	2.88902282715
1.575	-0.0695953369141	-0.0663317536518	2.88902282715
1.58	-0.0683746337891	-0.0666155642078	2.89024353027
1.585	-0.0695953369141	-0.0671923683814	2.89268493652
1.59	-0.0695953369141	-0.0678631475726	2.89268493652
1.595	-0.0634918212891	-0.068231114876	2.89268493652
1.6	-0.0403747558594	-0.066752691371	2.89390563965
1.605	-0.00627136230469	-0.060651318682	2.89268493652
1.61	0.00830078125	-0.0485170191476	2.89512634277
1.615	0.02294921875	-0.0320612724759	2.8963470459
1.62	0.0581970214844	-0.0128669166728	2.8963470459
1.625	0.0910797119141	0.00957722562816	2.8963470459
1.63	0.104507446289	0.0347574635531	2.89756774902
1.635	0.119079589844	0.0600649759569	2.8963470459
1.64	0.141052246094	0.0837427211916	2.8963470459
1.645	0.144638061523	0.105114674589	2.89756774902
1.65	0.0910797119141	0.120282639748	2.89756774902
1.655	0.0472869873047	0.122804201757	2.90000915527
1.66	0.009521484375	0.11038740264	2.9012298584
1.665	-0.0258026123047	0.0857807890404	2.9012298584
1.67	-0.0501403808594	0.053595600919	2.90367126465
1.675	-0.0683746337891	0.0189059865931	2.90489196777
1.68	-0.0818023681641	-0.0140387060984	2.90733337402
1.685	-0.0830230712891	-0.042182416156	2.9061126709
1.69	-0.0842437744141	-0.063560049243	2.90977478027
1.695	-0.0891265869141	-0.0780594805675	2.90977478027
1.7	-0.0879058837891	-0.0869510943897	2.9109954834
1.705	-0.0914916992188	-0.0917220168613	2.90977478027
1.71	-0.126815795898	-0.0954900591535	2.91213989258
1.715	-0.173126220703	-0.10363049833	2.91458129883
1.72	-0.134140014648	-0.116523030282	2.91458129883
1.725	0.0521697998047	-0.119318244664	2.91213989258
1.73	0.596374511719	-0.0725384186077	2.91213989258
1.735	1.33901977539	0.0830555282409	2.90977478027
1.74	2.03787231445	0.389317874377	2.9061126709
1.745	2.27163696289	0.82268925016	2.9061126709
1.75	1.7091217041	1.26646304545	2.9061126709
1.755	0.876373291016	1.55393265268	2.9109954834
1.76	0.193389892578	1.57719451585	2.91702270508
1.765	-0.103698730469	1.35108740216	2.92068481445
1.77	-0.210815429688	0.980201280079	2.92434692383
1.775	-0.248580932617	0.581219253709	2.92556762695
1.78	-0.269256591797	0.232662684107	2.92434692383
1.785	-0.272918701172	-0.0305945992862	2.92556762695
1.79	-0.264373779297	-0.20422001049	2.92678833008
1.795	-0.263229370117	-0.30105251843	2.92678833008
1.8	-0.244918823242	-0.34090462596	2.92678833008
1.805	-0.225463867188	-0.342739594245	2.92678833008
1.81	-0.196243286133	-0.321550985699	2.92678833008
1.815	-0.185256958008	-0.288848667685	2.9280090332
1.82	-0.170684814453	-0.253484358375	2.92678833008
1.825	-0.143905639648	-0.220249857251	2.92678833008
1.83	-0.129257202148	-0.190376750324	2.92678833008
1.835	-0.118347167969	-0.164579030453	2.92678833008
1.84	-0.103698730469	-0.143187900324	2.9280090332
1.845	-0.0914916992188	-0.125493280954	2.92678833008
1.85	-0.0634918212891	-0.10978808118	2.92678833008
1.855	-0.0379333496094	-0.0936337786166	2.9280090332
1.86	-0.0172576904297	-0.0756359032024	2.92678833008
1.865	-0.000244140625	-0.0561808989019	2.92678833008
1.87	0.0277557373047	-0.0357840167466	2.9280090332
1.875	0.0557556152344	-0.0140277670656	2.92922973633
1.88	0.0861968994141	0.00966178196019	2.9280090332
1.885	0.133728027344	0.0362237889213	2.92922973633
1.89	0.186065673828	0.0675012272734	2.9280090332
1.895	0.235961914063	0.104649594069	2.93045043945
1.9	0.301727294922	0.14788238334	2.93045043945
1.905	0.386947631836	0.198430862392	2.93045043945
1.91	0.461181640625	0.257570877045	2.93045043945
1.915	0.50016784668	0.322602341099	2.93167114258
1.92	0.533050537109	0.387069711799	2.93167114258
1.925	0.575698852539	0.446163493661	2.93167114258
1.93	0.584167480469	0.497552566304	2.93167114258
1.935	0.574478149414	0.537971490034	2.93167114258
1.94	0.546478271484	0.563741784757	2.93167114258
1.945	0.50749206543	0.572723524033	2.9328918457
1.95	0.43196105957	0.563417996894	2.93411254883
1.955	0.341934204102	0.533915323443	2.9328918457
1.96	0.255493164063	0.484145227724	2.93411254883
1.965	0.172637939453	0.417640578733	2.93533325195
1.97	0.100845336914	0.340233464149	2.93655395508
1.975	0.0485076904297	0.258887567294	2.93655395508
1.98	-0.00382995605469	0.180059848398	2.93655395508
1.985	-0.0319061279297	0.108477964893	2.9377746582
1.99	-0.0440368652344	0.0481040255056	2.93655395508
1.995	-0.0489196777344	0.0017432417928	2.93655395508
2	-0.0586853027344	-0.0306314990127	2.9377746582
2.005	-0.0538024902344	-0.051054723983	2.93655395508
2.01	-0.0489196777344	-0.0616061535826	2.93655395508
2.015	-0.0464782714844	-0.0645671022774	2.93899536133
2.02	-0.0452575683594	-0.0627417648654	2.93899536133
2.025	-0.0391540527344	-0.0583924786772	2.94021606445
2.03	-0.0306854248047	-0.0525943265812	2.94021606445
2.035	-0.0270233154297	-0.0459216693065	2.93899536133
2.04	-0.0196990966797	-0.0389837746153	2.94021606445
2.045	-0.0111541748047	-0.0319567720868	2.94143676758
2.05	-0.00627136230469	-0.0248311007539	2.94143676758
2.055	0.004638671875	-0.017623785072	2.94387817383
2.06	0.009521484375	-0.0102491565879	2.94387817383
2.065	0.00341796875	-0.0034808219846	2.9426574707
2.07	-0.00146484375	0.0011772556293	2.94387817383
2.075	0.00341796875	0.00343112185886	2.94509887695
2.08	-0.00505065917969	0.0039212477376	2.94509887695
2.085	-0.0135955810547	0.00250321712813	2.94509887695
2.09	0.00830078125	0.000239457332035	2.94631958008
2.095	0.019287109375	0.000110346622951	2.94509887695
2.1	0.0350799560547	0.00380721625526	2.94509887695
2.105	0.0618591308594	0.011902872468	2.94631958008
2.11	0.112976074219	0.0262254492859	2.94631958008
2.115	0.143417358398	0.0483235130595	2.9475402832
2.12	0.176300048828	0.0768516395262	2.94631958008
2.125	0.220169067383	0.109739877688	2.94631958008
2.13	0.229858398438	0.144715135195	2.9475402832
2.135	0.200637817383	0.175832659149	2.9475402832
2.14	0.159286499023	0.195154252052	2.94868469238
2.145	0.122741699219	0.19826000491	2.95112609863
2.15	0.0679626464844	0.185011091093	2.95234680176
2.155	0.0375213623047	0.158019235543	2.95356750488
2.16	0.014404296875	0.122847053924	2.95478820801
2.165	-0.0111541748047	0.0854256788975	2.95600891113
2.17	-0.0391540527344	0.0490871514671	2.95845031738
2.175	-0.0586853027344	0.015323188987	2.95967102051
2.18	-0.0683746337891	-0.014484895854	2.96089172363
2.185	-0.0538024902344	-0.037969774103	2.95967102051
2.19	-0.0489196777344	-0.0528884778268	2.96211242676
2.195	-0.0671539306641	-0.0605597591675	2.96211242676
2.2	-0.0914916992188	-0.0658309594386	2.96089172363
2.205	-0.131698608398	-0.073890576968	2.96333312988
2.21	-0.156036376953	-0.0877894781029	2.96333312988
2.215	-0.0732574462891	-0.102277051121	2.96333312988
2.22	0.233520507813	-0.0937138315326	2.96089172363
2.225	0.89826965332	-0.0126048400688	2.95967102051
2.23	1.64587402344	0.199188942749	2.95478820801
2.235	2.23387145996	0.562941520768	2.95478820801
2.24	2.19129943848	1.02108222158	2.95478820801
2.245	1.44621276855	1.42993007411	2.95722961426
2.25	0.615829467773	1.630076164	2.96211242676
2.255	0.0301971435547	1.5526451524	2.96577453613
2.26	-0.163360595703	1.25171765954	2.96577453613
2.265	-0.220581054688	0.848886880403	2.96699523926
2.27	-0.242477416992	0.455053405422	2.96699523926
2.275	-0.258346557617	0.132925914182	2.96577453613
2.28	-0.264373779297	-0.0972467194332	2.96821594238
2.285	-0.263229370117	-0.240957086864	2.96699523926
2.29	-0.259567260742	-0.315629300387	2.96821594238
2.295	-0.237594604492	-0.341164338583	2.96699523926
2.3	-0.209594726563	-0.334333302344	2.96577453613
2.305	-0.182815551758	-0.308012367198	2.96577453613
2.31	-0.160919189453	-0.272190443288	2.96577453613
2.315	-0.151153564453	-0.234599821678	2.96577453613
2.32	-0.136581420898	-0.200492455708	2.96577453613
2.325	-0.114685058594	-0.171586831497	2.96455383301
2.33	-0.0939331054688	-0.146923560138	2.96333312988
2.335	-0.0830230712891	-0.12546970626	2.96333312988
2.34	-0.0756988525391	-0.107251299459	2.96455383301
2.345	-0.0586853027344	-0.0920219928015	2.96333312988
2.35	-0.0379333496094	-0.0782080477863	2.96455383301
2.355	-0.0135955810547	-0.0638169828331	2.96577453613
2.36	0.016845703125	-0.0471904997368	2.96455383301
2.365	0.0326385498047	-0.0278727289589	2.96577453613
2.37	0.0655212402344	-0.00641765025941	2.96577453613
2.375	0.106948852539	0.0178030952767	2.96577453613
2.38	0.144638061523	0.0459925127698	2.96577453613
2.385	0.194610595703	0.07862585291	2.96577453613
2.39	0.263961791992	0.116971642339	2.96455383301
2.395	0.330947875977	0.162845145907	2.96455383301
2.4	0.397933959961	0.216425823826	2.96577453613
2.405	0.46728515625	0.276379753456	2.96333312988
2.41	0.522064208984	0.340420831516	2.96333312988
2.415	0.554946899414	0.404425044102	2.96211242676
2.42	0.570816040039	0.462893611133	2.96089172363
2.425	0.598815917969	0.512123405191	2.96089172363
2.43	0.592712402344	0.550759096713	2.96089172363
2.435	0.529388427734	0.574862446077	2.96089172363
2.44	0.475830078125	0.578776080474	2.96211242676
2.445	0.430816650391	0.562098707981	2.96089172363
2.45	0.371154785156	0.528995701687	2.96089172363
2.455	0.278610229492	0.482072356642	2.95967102051
2.46	0.183624267578	0.421337956534	2.95967102051
2.465	0.0923004150391	0.347772331631	2.96089172363
2.47	0.0301971435547	0.26579833554	2.96211242676
2.475	0.002197265625	0.183580941885	2.96333312988
2.48	-0.0245819091797	0.109731511382	2.96211242676
2.485	-0.0440368652344	0.048964856616	2.96089172363
2.49	-0.0391540527344	0.00304046920224	2.95967102051
2.495	-0.0379333496094	-0.0275006835613	2.96211242676
2.5	-0.0391540527344	-0.0445589334411	2.96211242676
2.505	-0.0294647216797	-0.0514477423915	2.96089172363
2.51	-0.0172576904297	-0.0506631314425	2.96211242676
2.515	-0.0221405029297	-0.0449014226914	2.96333312988
2.52	-0.0111541748047	-0.037135662782	2.96089172363
2.525	0.005859375	-0.0282440289837	2.96089172363
2.53	0.0107421875	-0.0181376215122	2.96089172363
2.535	0.0009765625	-0.00851381492774	2.96089172363
2.54	-0.00382995605469	-0.00180070371058	2.96211242676
2.545	0.00830078125	0.00190778040101	2.96089172363
2.55	0.009521484375	0.00440804133083	2.95967102051
2.555	0.009521484375	0.0065249563875	2.95967102051
2.56	0.007080078125	0.00800639559192	2.95967102051
2.565	-0.000244140625	0.00833880180521	2.95722961426
2.57	0.014404296875	0.00793213507195	2.95600891113
2.575	0.019287109375	0.0084759154659	2.95722961426
2.58	0.019287109375	0.0105130598093	2.95600891113
2.585	0.024169921875	0.0133592561388	2.95478820801
2.59	0.0557556152344	0.0179857643073	2.95478820801
2.595	0.0813903808594	0.0269561757719	2.95356750488
2.6	0.103286743164	0.0412400665258	2.94990539551
2.605	0.141052246094	0.0604464308773	2.94990539551
2.61	0.181182861328	0.0848754288512	2.94868469238
2.615	0.183624267578	0.112922579529	2.94990539551
2.62	0.197052001953	0.140269715689	2.94990539551
2.625	0.204299926758	0.163912162923	2.94868469238
2.63	0.194610595703	0.182211102968	2.94990539551
2.635	0.167831420898	0.1927104041	2.94990539551
2.64	0.121520996094	0.192382227802	2.94868469238
2.645	0.0618591308594	0.178529075407	2.94990539551
2.65	0.01318359375	0.150693965481	2.94868469238
2.655	-0.0160369873047	0.112527404959	2.94990539551
2.66	-0.0342712402344	0.0705398141562	2.95112609863
2.665	-0.0538024902344	0.0304894791023	2.94990539551
2.67	-0.0732574462891	-0.00475840799487	2.95112609863
2.675	-0.0744781494141	-0.0338925075707	2.95112609863
2.68	-0.0683746337891	-0.0553722900421	2.94990539551
2.685	-0.0647125244141	-0.0684482225783	2.94990539551
2.69	-0.0659332275391	-0.074415041199	2.94990539551
2.695	-0.104919433594	-0.0775266609245	2.94990539551
2.7	-0.168243408203	-0.0852344505757	2.95112609863
2.705	-0.162139892578	-0.10113983183	2.95112609863
2.71	-0.0196990966797	-0.113928979457	2.94631958008
2.715	0.403961181641	-0.0898577000418	2.94631958008
2.72	1.1174621582	0.026474743149	2.9426574707
2.725	1.85400390625	0.286068236677	2.94021606445
2.73	2.27896118164	0.688692332284	2.9377746582
2.735	1.96966552734	1.14628325	2.93899536133
2.74	1.14424133301	1.49945855637	2.94387817383
2.745	0.344375610352	1.6087863097	2.94631958008
2.75	-0.0695953369141	1.44703888147	2.94868469238
2.755	-0.199905395508	1.10071502646	2.95112609863
2.76	-0.244918823242	0.694323748204	2.94990539551
2.765	-0.269256591797	0.322093540178	2.94990539551
2.77	-0.277801513672	0.0306345322607	2.94990539551
2.775	-0.268035888672	-0.168778718475	2.94868469238
2.78	-0.260787963867	-0.285284390026	2.94631958008
2.785	-0.258346557617	-0.338284781229	2.94509887695
2.79	-0.238815307617	-0.348811859665	2.94509887695
2.795	-0.220581054688	-0.333751681794	2.94387817383
2.8	-0.201126098633	-0.305405528898	2.94387817383
2.805	-0.187698364258	-0.272500198465	2.94143676758
2.81	-0.169464111328	-0.240446975195	2.94021606445
2.815	-0.157257080078	-0.211862584634	2.93655395508
2.82	-0.134140014648	-0.187224930707	2.93533325195
2.825	-0.104919433594	-0.165030653468	2.93167114258
2.83	-0.0902709960938	-0.143695319973	2.92922973633
2.835	-0.0781402587891	-0.123460246577	2.93045043945
2.84	-0.0525817871094	-0.104526173445	2.93045043945
2.845	-0.0367126464844	-0.0860759982797	2.9280090332
2.85	-0.0270233154297	-0.0681781806039	2.9280090332
2.855	-0.00382995605469	-0.0511586573078	2.9280090332
2.86	0.0265350341797	-0.0337239741055	2.92678833008
2.865	0.0472869873047	-0.0144734237017	2.9280090332
2.87	0.0813903808594	0.00700663479872	2.92678833008
2.875	0.136169433594	0.0322504208518	2.9280090332
2.88	0.187286376953	0.0636725693598	2.9280090332
2.885	0.244506835938	0.102218043522	2.9280090332
2.89	0.339492797852	0.149173523759	2.92678833008
2.895	0.403961181641	0.205978057018	2.9280090332
2.9	0.461181640625	0.270114135063	2.92678833008
2.905	0.50260925293	0.336185644028	2.9280090332
2.91	0.50993347168	0.397816853624	2.92678833008
2.915	0.528167724609	0.449319702778	2.9280090332
2.92	0.540374755859	0.488920993001	2.9280090332
2.925	0.542816162109	0.517441505483	2.9280090332
2.93	0.498947143555	0.534014173732	2.92678833008
2.935	0.44172668457	0.535078067588	2.9280090332
2.94	0.365051269531	0.517477941317	2.92678833008
2.945	0.266403198242	0.479681477385	2.9280090332
2.95	0.169052124023	0.421796901254	2.9280090332
2.955	0.106948852539	0.348316314854	2.92678833008
2.96	0.0497283935547	0.26786405219	2.9280090332
2.965	0.00830078125	0.188773233243	2.9280090332
2.97	-0.0172576904297	0.117305394933	2.92434692383
2.975	-0.0403747558594	0.0574387134621	2.92434692383
2.98	-0.0501403808594	0.0105622264852	2.92190551758
2.985	-0.0538024902344	-0.0234119199474	2.91946411133
2.99	-0.0501403808594	-0.0453908285982	2.9182434082
2.995	-0.0452575683594	-0.0570204332183	2.9182434082
3	-0.0525817871094	-0.0611325788194	2.9182434082
3.005	-0.0379333496094	-0.060563490394	2.9182434082
3.01	-0.0160369873047	-0.0557733692056	2.91458129883
3.015	-0.0233612060547	-0.0474330834266	2.91458129883
3.02	-0.0196990966797	-0.038382493372	2.91458129883
3.025	-0.00382995605469	-0.0299205750447	2.91213989258
3.03	-0.00627136230469	-0.0217891694987	2.9133605957
3.035	-0.00505065917969	-0.0147576473988	2.91213989258
3.04	-0.00505065917969	-0.009564568581	2.9109954834
3.045	-0.00146484375	-0.00601218964111	2.9109954834
3.05	-0.00505065917969	-0.00375681741991	2.90855407715
3.055	-0.00993347167969	-0.00294617958221	2.90855407715
3.06	-0.0111541748047	-0.00366790377358	2.90855407715
3.065	-0.0233612060547	-0.00591109637208	2.90977478027
3.07	-0.0258026123047	-0.00978384008819	2.9109954834
3.075	-0.00627136230469	-0.0136307639285	2.90977478027
3.08	0.004638671875	-0.0145624305339	2.9109954834
3.085	0.011962890625	-0.011642929874	2.9109954834
3.09	0.0387420654297	-0.00495367538239	2.90855407715
3.095	0.0557556152344	0.00594872902452	2.90977478027
3.1	0.0777282714844	0.0207301631141	2.9109954834
3.105	0.121520996094	0.0395241541785	2.90977478027
3.11	0.141052246094	0.062778691759	2.90977478027
3.115	0.149520874023	0.0881488196909	2.90855407715
3.12	0.151962280273	0.111672926328	2.90855407715
3.125	0.136169433594	0.129835672905	2.90855407715
3.13	0.116638183594	0.13976462583	2.90977478027
3.135	0.0728454589844	0.13926112301	2.90977478027
3.14	0.0314178466797	0.12686710398	2.90977478027
3.145	-0.00993347167969	0.103162108339	2.9109954834
3.15	-0.0428161621094	0.0710251628066	2.90855407715
3.155	-0.0622711181641	0.0348324434274	2.90855407715
3.16	-0.0732574462891	-0.000495154937552	2.9109954834
3.165	-0.0818023681641	-0.0311836961531	2.90977478027
3.17	-0.0842437744141	-0.0553356523283	2.90977478027
3.175	-0.0830230712891	-0.072379275291	2.9109954834
3.18	-0.0927124023438	-0.0832289071303	2.9109954834
3.185	-0.102478027344	-0.0903183713127	2.9109954834
3.19	-0.120712280273	-0.0964395170029	2.90977478027
3.195	-0.179153442383	-0.105783773782	2.91213989258
3.2	-0.199905395508	-0.12217942261	2.91213989258
3.205	-0.0988159179688	-0.138964795372	2.9109954834
3.21	0.207962036133	-0.130322706742	2.90733337402
3.215	0.854476928711	-0.0479770053512	2.9061126709
3.22	1.59468078613	0.163370964198	2.90245056152
3.225	2.13285827637	0.522110247304	2.90000915527
3.23	1.98675537109	0.964202366122	2.90000915527
3.235	1.2550201416	1.34330125708	2.90489196777
3.24	0.48681640625	1.51177410508	2.9061126709
3.245	-0.0160369873047	1.41773961996	2.91213989258
3.25	-0.186477661133	1.12225631248	2.91213989258
3.255	-0.244918823242	0.740603718626	2.9133605957
3.26	-0.266815185547	0.372732456632	2.91458129883
3.265	-0.280242919922	0.0741856002955	2.91213989258
3.27	-0.283905029297	-0.137594596559	2.91213989258
3.275	-0.269256591797	-0.267904246158	2.9109954834
3.28	-0.266815185547	-0.332804803374	2.90977478027
3.285	-0.253463745117	-0.352043512118	2.90855407715
3.29	-0.230346679688	-0.342864189421	2.90733337402
3.295	-0.215698242188	-0.317977817292	2.90245056152
3.3	-0.203567504883	-0.286981176519	2.9012298584
3.305	-0.182815551758	-0.255946845084	2.9012298584
3.31	-0.170684814453	-0.227586779931	2.8963470459
3.315	-0.158477783203	-0.203135472422	2.8963470459
3.32	-0.125595092773	-0.181915656032	2.8963470459
3.325	-0.0963745117188	-0.161255754052	2.8963470459
3.33	-0.0842437744141	-0.139910992205	2.89512634277
3.335	-0.0744781494141	-0.119250367724	2.89390563965
3.34	-0.0538024902344	-0.10032422778	2.89512634277
3.345	-0.0258026123047	-0.0820937147849	2.8963470459
3.35	-0.00993347167969	-0.0633000981785	2.89512634277
3.355	0.014404296875	-0.043818899874	2.89512634277
3.36	0.0424041748047	-0.0233251044886	2.89512634277
3.365	0.0801696777344	-0.00066665883465	2.8963470459
3.37	0.116638183594	0.0253337127244	2.89512634277
3.375	0.175079345703	0.0559828109806	2.89512634277
3.38	0.238403320313	0.093258216582	2.8963470459
3.385	0.307830810547	0.13865550418	2.89512634277
3.39	0.391830444336	0.192872132009	2.89512634277
3.395	0.461181640625	0.255573996173	2.89390563965
3.4	0.494064331055	0.322669387022	2.8963470459
3.405	0.525726318359	0.387238438619	2.89512634277
3.41	0.564712524414	0.444886949592	2.89390563965
3.415	0.545257568359	0.492654275436	2.89512634277
3.42	0.501388549805	0.52472730492	2.8963470459
3.425	0.468505859375	0.536701397091	2.8963470459
3.43	0.407623291016	0.528714785125	2.8963470459
3.435	0.349182128906	0.502554822731	2.8963470459
3.44	0.262741088867	0.46009591324	2.89512634277
3.445	0.181182861328	0.403022020113	2.8963470459
3.45	0.0898590087891	0.333566514489	2.89390563965
3.455	0.0338592529297	0.256066345431	2.89268493652
3.46	0.004638671875	0.178182931034	2.89390563965
3.465	-0.0306854248047	0.10757371091	2.89268493652
3.47	-0.0586853027344	0.0476725394568	2.89268493652
3.475	-0.0659332275391	-0.000456180401448	2.8914642334
3.48	-0.0744781494141	-0.0362686033226	2.89268493652
3.485	-0.0854644775391	-0.0610449185032	2.89268493652
3.49	-0.0744781494141	-0.0767226483314	2.89268493652
3.495	-0.0622711181641	-0.0839626633583	2.89024353027
3.5	-0.0525817871094	-0.0836368571134	2.8914642334
3.505	-0.0440368652344	-0.0777989098993	2.89268493652
3.51	-0.0391540527344	-0.0688666598731	2.8914642334
3.515	-0.0403747558594	-0.0592724517303	2.8914642334
3.52	-0.0391540527344	-0.0509541372256	2.8914642334
3.525	-0.0330505371094	-0.0444603987694	2.8914642334
3.53	-0.0233612060547	-0.0389958486836	2.89024353027
3.535	-0.0196990966797	-0.0337013457199	2.8914642334
3.54	-0.0184783935547	-0.028626274916	2.89024353027
3.545	-0.0294647216797	-0.0248208651211	2.89024353027
3.55	-0.0391540527344	-0.023746403091	2.8914642334
3.555	-0.0330505371094	-0.025332547615	2.89024353027
3.56	-0.0270233154297	-0.0275403315347	2.8914642334
3.565	-0.0245819091797	-0.0286961632727	2.8914642334
3.57	-0.0245819091797	-0.0286180501133	2.89024353027
3.575	-0.0319061279297	-0.0281727346964	2.89024353027
3.58	-0.0184783935547	-0.0276853107614	2.8914642334
3.585	-0.000244140625	-0.0255249296129	2.89024353027
3.59	0.0289764404297	-0.0192906151948	2.8914642334
3.595	0.0472869873047	-0.00782121758007	2.89024353027
3.6	0.0630798339844	0.00787238967911	2.89024353027
3.605	0.0898590087891	0.0262847924692	2.8914642334
3.61	0.121520996094	0.04729666308	2.88902282715
3.615	0.136169433594	0.0705421014252	2.88780212402
3.62	0.136169433594	0.0934087620413	2.89024353027
3.625	0.136169433594	0.112545372906	2.88902282715
3.63	0.116638183594	0.125415262518	2.88902282715
3.635	0.0765075683594	0.129174936009	2.89024353027
3.64	0.0314178466797	0.121076654598	2.8914642334
3.645	-0.00993347167969	0.100721790451	2.89024353027
3.65	-0.0367126464844	0.0709643518056	2.89024353027
3.655	-0.0525817871094	0.0369632429688	2.89024353027
3.66	-0.0683746337891	0.00372110671685	2.8914642334
3.665	-0.0842437744141	-0.0259349279916	2.8914642334
3.67	-0.0879058837891	-0.0507165650728	2.89268493652
3.675	-0.0769195556641	-0.069091159792	2.8914642334
3.68	-0.0695953369141	-0.0797415020701	2.8914642334
3.685	-0.0818023681641	-0.0840082389608	2.89024353027
3.69	-0.106140136719	-0.0862592419691	2.8914642334
3.695	-0.165802001953	-0.0926644430399	2.89268493652
3.7	-0.181594848633	-0.107286712	2.89268493652
3.705	-0.0842437744141	-0.122970462856	2.8914642334
3.71	0.228713989258	-0.113591470617	2.89024353027
3.715	0.891021728516	-0.029697952604	2.88536071777
3.72	1.62878417969	0.184940600467	2.88414001465
3.725	2.13652038574	0.546319367232	2.8816986084
3.73	1.95509338379	0.985692880975	2.8816986084
3.735	1.2282409668	1.35550146302	2.88536071777
3.74	0.485595703125	1.51316627252	2.88780212402
3.745	0.0009765625	1.41299623668	2.89268493652
3.75	-0.159698486328	1.11811946334	2.89268493652
3.755	-0.225463867188	0.741681632691	2.89268493652
3.76	-0.259567260742	0.379540866376	2.89390563965
3.765	-0.274139404297	0.0844037791189	2.89512634277
3.77	-0.269256591797	-0.126011732587	2.89268493652
3.775	-0.258346557617	-0.255651183531	2.89268493652
3.78	-0.253463745117	-0.320184868386	2.89390563965
3.785	-0.246139526367	-0.339498835224	2.8914642334
3.79	-0.219360351563	-0.330872855643	2.8914642334
3.795	-0.198684692383	-0.306334968425	2.8914642334
3.8	-0.184036254883	-0.274680576895	2.8914642334
3.805	-0.163360595703	-0.242108169485	2.89024353027
3.81	-0.145126342773	-0.211670217439	2.89024353027
3.815	-0.136581420898	-0.184868291023	2.88902282715
3.82	-0.114685058594	-0.162160608278	2.88902282715
3.825	-0.0927124023438	-0.142228641798	2.88291931152
3.83	-0.0842437744141	-0.123911728498	2.8816986084
3.835	-0.0683746337891	-0.107242030573	2.88047790527
3.84	-0.0379333496094	-0.0911993376745	2.87803649902
3.845	-0.0184783935547	-0.0739871400251	2.87803649902
3.85	-0.00993347167969	-0.0557823961027	2.87925720215
3.855	0.016845703125	-0.037527527288	2.88047790527
3.86	0.0448455810547	-0.0184599057627	2.87925720215
3.865	0.0740661621094	0.00265568183023	2.88047790527
3.87	0.106948852539	0.026386702484	2.88047790527
3.875	0.160507202148	0.053877622911	2.8816986084
3.88	0.227493286133	0.0876934981609	2.88414001465
3.885	0.293182373047	0.130061591215	2.88291931152
3.89	0.360168457031	0.181058793158	2.88414001465
3.895	0.416168212891	0.23868362829	2.88414001465
3.9	0.45881652832	0.299159036294	2.88536071777
3.905	0.50749206543	0.358640779898	2.88536071777
3.91	0.525726318359	0.413957430179	2.88536071777
3.915	0.511154174805	0.460273818438	2.88414001465
3.92	0.50749206543	0.492944894627	2.88536071777
3.925	0.48193359375	0.510687159865	2.88536071777
3.93	0.411285400391	0.512027137623	2.88780212402
3.935	0.310272216797	0.492695771823	2.8865814209
3.94	0.222610473633	0.450142186218	2.88780212402
3.945	0.137390136719	0.38734064681	2.88780212402
3.95	0.0691833496094	0.311116277066	2.88902282715
3.955	0.0265350341797	0.230164049892	2.88902282715
3.96	-0.0196990966797	0.152610239996	2.88902282715
3.965	-0.0538024902344	0.0832321791456	2.88902282715
3.97	-0.0744781494141	0.0244440204181	2.88902282715
3.975	-0.0891265869141	-0.0224445006955	2.88902282715
3.98	-0.101257324219	-0.0576933623357	2.89024353027
3.985	-0.104919433594	-0.0826772470429	2.88902282715
3.99	-0.0951538085938	-0.0984494702828	2.8914642334
3.995	-0.0842437744141	-0.105545509771	2.88902282715
4	-0.0842437744141	-0.105607978606	2.88780212402
4.005	-0.0756988525391	-0.10130223194	2.89024353027
4.01	-0.0708160400391	-0.0946290326186	2.8914642334
4.015	-0.0769195556641	-0.0874597456018	2.88902282715
4.02	-0.0756988525391	-0.08165097128	2.8914642334
4.025	-0.0671539306641	-0.0773579377203	2.88780212402
4.03	-0.0708160400391	-0.0739267866943	2.88902282715
4.035	-0.0756988525391	-0.0717216004706	2.89024353027
4.04	-0.0769195556641	-0.0712020344167	2.8914642334
4.045	-0.0744781494141	-0.0718326040031	2.8914642334
4.05	-0.0683746337891	-0.0724619612464	2.89268493652
4.055	-0.0659332275391	-0.0721862034198	2.89268493652
4.06	-0.0695953369141	-0.0711783043377	2.89268493652
4.065	-0.0683746337891	-0.0701652537358	2.8914642334
4.07	-0.0695953369141	-0.0694492314227	2.89024353027
4.075	-0.0501403808594	-0.0681702379081	2.88902282715
4.08	-0.0354919433594	-0.0644359474204	2.8914642334
4.085	-0.0258026123047	-0.0574871939098	2.8914642334
4.09	-0.00749206542969	-0.0478253322857	2.8914642334
4.095	0.01806640625	-0.0352965655345	2.8914642334
4.1	0.0399627685547	-0.0194567842199	2.89268493652
4.105	0.0813903808594	0.000198950021401	2.89512634277
4.11	0.106948852539	0.0241158366745	2.8963470459
4.115	0.0971832275391	0.0495338351483	2.89512634277
4.12	0.116638183594	0.0721753252642	2.8963470459
4.125	0.121520996094	0.0908430550535	2.89756774902
4.13	0.105728149414	0.104731182406	2.8963470459
4.135	0.0630798339844	0.11050660976	2.89756774902
4.14	0.0314178466797	0.105102324186	2.89756774902
4.145	-0.0245819091797	0.0877248943507	2.89878845215
4.15	-0.0599060058594	0.0594086061867	2.89878845215
4.155	-0.0756988525391	0.0243665286356	2.89878845215
4.16	-0.0781402587891	-0.0107164533572	2.90000915527
4.165	-0.0842437744141	-0.0405811595186	2.9012298584
4.17	-0.0854644775391	-0.0631006749669	2.90245056152
4.175	-0.0781402587891	-0.0779085856531	2.9012298584
4.18	-0.0756988525391	-0.0854593002732	2.90489196777
4.185	-0.0781402587891	-0.0875970188902	2.90489196777
4.19	-0.112243652344	-0.0883639700563	2.9061126709
4.195	-0.171905517578	-0.0943266754918	2.90733337402
4.2	-0.163360595703	-0.108428112147	2.90855407715
4.205	-0.0111541748047	-0.118872545254	2.9061126709
4.21	0.44172668457	-0.0902616213874	2.90733337402
4.215	1.14424133301	0.0334919546269	2.90367126465
4.22	1.85041809082	0.299487899411	2.9012298584
4.225	2.21441650391	0.70071147503	2.9012298584
4.23	1.8394317627	1.14326727804	2.90245056152
4.235	1.03224182129	1.46944452177	2.9061126709
4.24	0.313934326172	1.55328699535	2.91213989258
4.245	-0.0659332275391	1.38144030602	2.91213989258
4.25	-0.192581176758	1.04152568034	2.91580200195
4.255	-0.241256713867	0.650222222532	2.91580200195
4.26	-0.263229370117	0.294504126071	2.91580200195
4.265	-0.272918701172	0.0172072600888	2.9182434082
4.27	-0.271697998047	-0.172203566115	2.91702270508
4.275	-0.258346557617	-0.283157945305	2.91702270508
4.28	-0.248580932617	-0.333313710786	2.9182434082
4.285	-0.238815307617	-0.342345427004	2.9182434082
4.29	-0.225463867188	-0.327517791522	2.91702270508
4.295	-0.198684692383	-0.300774207597	2.9182434082
4.3	-0.184036254883	-0.269342705282	2.9182434082
4.305	-0.168243408203	-0.238090153003	2.9182434082
4.31	-0.146347045898	-0.209549574341	2.9182434082
4.315	-0.126815795898	-0.183959489254	2.91702270508
4.32	-0.102478027344	-0.160607672684	2.9182434082
4.325	-0.0830230712891	-0.138621715294	2.91702270508
4.33	-0.0744781494141	-0.118052589373	2.91702270508
4.335	-0.0659332275391	-0.0998957717741	2.91702270508
4.34	-0.0354919433594	-0.0836888945606	2.9182434082
4.345	-0.00382995605469	-0.0667681919275	2.91702270508
4.35	0.016845703125	-0.0473393854594	2.91702270508
4.355	0.0399627685547	-0.0258275389982	2.92068481445
4.36	0.0740661621094	-0.00260082875772	2.92068481445
4.365	0.108169555664	0.022969497368	2.92190551758
4.37	0.144638061523	0.0513761324698	2.92190551758
4.375	0.209182739258	0.0838514310514	2.92190551758
4.38	0.274948120117	0.123006529961	2.92190551758
4.385	0.317520141602	0.169230892758	2.9231262207
4.39	0.397933959961	0.221073711444	2.92434692383
4.395	0.447830200195	0.277798341143	2.9231262207
4.4	0.480712890625	0.336286846753	2.92434692383
4.405	0.534271240234	0.392656549659	2.9231262207
4.41	0.563491821289	0.445388877751	2.9231262207
4.415	0.561050415039	0.491655863943	2.9231262207
4.42	0.548843383789	0.526765210842	2.92434692383
4.425	0.522064208984	0.547434201665	2.92556762695
4.43	0.45637512207	0.551123025992	2.92434692383
4.435	0.379623413086	0.534943330036	2.92556762695
4.44	0.291961669922	0.497821907352	2.92678833008
4.445	0.200637817383	0.441409382781	2.92678833008
4.45	0.106948852539	0.369127001152	2.92678833008
4.455	0.0399627685547	0.286430491487	2.9280090332
4.46	0.005859375	0.201796272958	2.9280090332
4.465	-0.0196990966797	0.124410632445	2.9280090332
4.47	-0.0415954589844	0.059928201146	2.92922973633
4.475	-0.0489196777344	0.0101533140019	2.9280090332
4.48	-0.0647125244141	-0.025617831925	2.92922973633
4.485	-0.0671539306641	-0.0498086276909	2.92922973633
4.49	-0.0622711181641	-0.0645687580029	2.93045043945
4.495	-0.0501403808594	-0.0710696338154	2.93045043945
4.5	-0.0440368652344	-0.070682874069	2.93045043945
4.505	-0.0452575683594	-0.0659136266782	2.93167114258
4.51	-0.0428161621094	-0.0595875079665	2.93167114258
4.515	-0.0428161621094	-0.0534941022083	2.93167114258
4.52	-0.0367126464844	-0.0482453540375	2.9328918457
4.525	-0.0196990966797	-0.0430325575897	2.93411254883
4.53	-0.0160369873047	-0.0367791081106	2.93411254883
4.535	-0.0294647216797	-0.0306644847736	2.93533325195
4.54	-0.0319061279297	-0.0269290301412	2.93655395508
4.545	-0.0319061279297	-0.0258976713322	2.93655395508
4.55	-0.0391540527344	-0.0268335200042	2.93533325195
4.555	-0.0354919433594	-0.029063955806	2.93655395508
4.56	-0.0319061279297	-0.0313505696036	2.93655395508
4.565	-0.0306854248047	-0.0326867767708	2.93655395508
4.57	-0.0294647216797	-0.0329746359158	2.9377746582
4.575	-0.0245819091797	-0.0322995941854	2.9377746582
4.58	-0.002685546875	-0.02975861182	2.93899536133
4.585	0.01806640625	-0.0235660021595	2.93899536133
4.59	0.0436248779297	-0.0126163554838	2.9377746582
4.595	0.0704040527344	0.00320316577684	2.9377746582
4.6	0.102066040039	0.0236090449302	2.94021606445
4.605	0.127624511719	0.047840790119	2.9377746582
4.61	0.137390136719	0.0737519738751	2.9377746582
4.615	0.160507202148	0.0988543096703	2.9377746582
4.62	0.167831420898	0.121848029257	2.9377746582
4.625	0.153182983398	0.14062817059	2.9377746582
4.63	0.126403808594	0.151621565702	2.9377746582
4.635	0.0765075683594	0.151308457738	2.93899536133
4.64	0.025390625	0.137295354874	2.94021606445
4.645	-0.00871276855469	0.110538937709	2.9426574707
4.65	-0.0379333496094	0.0755998728125	2.94143676758
4.655	-0.0622711181641	0.037691697488	2.9426574707
4.66	-0.0683746337891	0.00144331260673	2.94509887695
4.665	-0.0708160400391	-0.0290984576953	2.94387817383
4.67	-0.0720367431641	-0.0517609898513	2.94509887695
4.675	-0.0695953369141	-0.0664791889436	2.94509887695
4.68	-0.0732574462891	-0.0745743596278	2.94631958008
4.685	-0.0781402587891	-0.0783689705256	2.94631958008
4.69	-0.125595092773	-0.0821569271322	2.9475402832
4.695	-0.162139892578	-0.0915321144504	2.94631958008
4.7	-0.113464355469	-0.10524063477	2.9475402832
4.705	0.0935211181641	-0.10619703038	2.94631958008
4.71	0.657257080078	-0.0533564221096	2.94387817383
4.715	1.35122680664	0.109766679708	2.93899536133
4.72	2.00621032715	0.417277284943	2.94021606445
4.725	2.18031311035	0.839532247239	2.94021606445
4.73	1.55332946777	1.25765739418	2.94021606445
4.735	0.733932495117	1.50897962681	2.9475402832
4.74	0.0923004150391	1.49776630758	2.95112609863
4.745	-0.140243530273	1.25177673522	2.95722961426
4.75	-0.235153198242	0.880279756953	2.96089172363
4.755	-0.275360107422	0.494268804445	2.96089172363
4.76	-0.283905029297	0.163867044242	2.96211242676
4.765	-0.287567138672	-0.0810294624034	2.96333312988
4.77	-0.276580810547	-0.238908623231	2.96089172363
4.775	-0.258346557617	-0.323172710254	2.96211242676
4.78	-0.243698120117	-0.352818050563	2.96333312988
4.785	-0.234008789063	-0.347491168077	2.96333312988
4.79	-0.221801757813	-0.323814609438	2.96333312988
4.795	-0.199905395508	-0.292899055133	2.96089172363
4.8	-0.186477661133	-0.260925219866	2.96089172363
4.805	-0.160919189453	-0.230902883455	2.96089172363
4.81	-0.146347045898	-0.203730454447	2.95967102051
4.815	-0.136581420898	-0.179999654522	2.95967102051
4.82	-0.120712280273	-0.160035145102	2.96089172363
4.825	-0.0902709960938	-0.142287977344	2.96089172363
4.83	-0.0683746337891	-0.124355347372	2.95967102051
4.835	-0.0464782714844	-0.105205895706	2.95845031738
4.84	-0.0270233154297	-0.0850637429581	2.95967102051
4.845	-0.0123748779297	-0.0646692810509	2.95967102051
4.85	-0.002685546875	-0.045218067409	2.96089172363
4.855	0.00341796875	-0.0279687353596	2.96089172363
4.86	0.0265350341797	-0.0129087361719	2.96089172363
4.865	0.0728454589844	0.0028463560164	2.96211242676
4.87	0.123962402344	0.0237333755752	2.96089172363
4.875	0.175079345703	0.0525008499009	2.95967102051
4.88	0.242065429688	0.0900001855	2.96211242676
4.885	0.323623657227	0.137175231878	2.96089172363
4.89	0.397933959961	0.194446944581	2.96089172363
4.895	0.438064575195	0.258585994044	2.96089172363
4.9	0.475830078125	0.323139938104	2.96089172363
4.905	0.530609130859	0.38384870875	2.96089172363
4.91	0.556167602539	0.43943931799	2.96089172363
4.915	0.51725769043	0.485344961652	2.95967102051
4.92	0.48193359375	0.513976105844	2.96333312988
4.925	0.463623046875	0.522929403329	2.96089172363
4.93	0.424713134766	0.515438822361	2.96089172363
4.935	0.334609985352	0.492651868825	2.96333312988
4.94	0.249389648438	0.452507191604	2.96333312988
4.945	0.151962280273	0.394719702525	2.96333312988
4.95	0.0716247558594	0.322292144087	2.96455383301
4.955	0.0326385498047	0.242324041991	2.96333312988
4.96	0.005859375	0.164865204632	2.96333312988
4.965	-0.0319061279297	0.0969222795665	2.96577453613
4.97	-0.0562438964844	0.0403542167767	2.96333312988
4.975	-0.0538024902344	-0.00405625732111	2.96455383301
4.98	-0.0683746337891	-0.0358622711423	2.96455383301
4.985	-0.0732574462891	-0.0570572871711	2.96455383301
4.99	-0.0647125244141	-0.0698511799746	2.96455383301
4.995	-0.0659332275391	-0.0756456571316	2.96577453613
5	-0.0622711181641	-0.0764779914465	2.96577453613
5.005	-0.0415954589844	-0.0734809232691	2.96577453613
5.01	-0.0196990966797	-0.0660668795165	2.96455383301
5.015	-0.00871276855469	-0.0543677440839	2.96577453613
5.02	-0.000244140625	-0.0403055269777	2.96577453613
5.025	0.0107421875	-0.025880994688	2.96455383301
5.03	0.004638671875	-0.0128172449105	2.96455383301
5.035	-0.00627136230469	-0.00339297467458	2.96455383301
5.04	-0.00146484375	0.00143588882065	2.96455383301
5.045	-0.00382995605469	0.00294467864049	2.96455383301
5.05	-0.0111541748047	0.00220784299214	2.96333312988
5.055	-0.0111541748047	-0.000282318228959	2.96455383301
5.06	-0.0111541748047	-0.00351316333391	2.96577453613
5.065	-0.00505065917969	-0.00623054083406	2.96455383301
5.07	0.00830078125	-0.00701490024121	2.96577453613
5.075	0.0277557373047	-0.00429293167124	2.96577453613
5.08	0.0387420654297	0.00256894413136	2.96577453613
5.085	0.0655212402344	0.0133471761902	2.96577453613
5.09	0.0996246337891	0.0286134564098	2.96577453613
5.095	0.132507324219	0.0491687809288	2.96333312988
5.1	0.151962280273	0.0740369242257	2.96455383301
5.105	0.179962158203	0.101040922474	2.96333312988
5.11	0.210403442383	0.128997561047	2.96333312988
5.115	0.206741333008	0.156195327035	2.96455383301
5.12	0.182403564453	0.177944829132	2.96333312988
5.125	0.162948608398	0.189689511338	2.96333312988
5.13	0.125183105469	0.189686567076	2.96455383301
5.135	0.0643005371094	0.176716043464	2.96333312988
5.14	0.0289764404297	0.15077232002	2.96455383301
5.145	-0.000244140625	0.115819791874	2.96455383301
5.15	-0.0258026123047	0.0773816970579	2.96577453613
5.155	-0.0415954589844	0.0398875649771	2.96455383301
5.16	-0.0476989746094	0.0068586433569	2.96577453613
5.165	-0.0538024902344	-0.019452749417	2.96333312988
5.17	-0.0538024902344	-0.038449909968	2.96455383301
5.175	-0.0513610839844	-0.0505132883074	2.96577453613
5.18	-0.0634918212891	-0.0572748860091	2.96333312988
5.185	-0.0879058837891	-0.0623141681407	2.96455383301
5.19	-0.141464233398	-0.0708593950911	2.96455383301
5.195	-0.151153564453	-0.0860667991036	2.96455383301
5.2	-0.0452575683594	-0.100224106168	2.96455383301
5.205	0.327285766602	-0.0847430989878	2.96211242676
5.21	1.03590393066	0.0144049236292	2.95845031738
5.215	1.76756286621	0.252724406883	2.95600891113
5.22	2.26431274414	0.638624978996	2.95356750488
5.225	2.05130004883	1.09565660114	2.95234680176
5.23	1.2282409668	1.46863002413	2.95600891113
5.235	0.417388916016	1.60826772839	2.96089172363
5.24	-0.0415954589844	1.47342600735	2.96333312988
5.245	-0.190139770508	1.14186767661	2.96455383301
5.25	-0.247360229492	0.737224550347	2.96333312988
5.255	-0.269256591797	0.358162992548	2.96455383301
5.26	-0.272918701172	0.0568010743314	2.96455383301
5.265	-0.270477294922	-0.151973108425	2.96211242676
5.27	-0.265594482422	-0.276405426565	2.96089172363
5.275	-0.244918823242	-0.334879297512	2.95967102051
5.28	-0.237594604492	-0.347653233629	2.95845031738
5.285	-0.224243164063	-0.333348753538	2.95967102051
5.29	-0.191360473633	-0.305279673579	2.95845031738
5.295	-0.167022705078	-0.270847957267	2.95845031738
5.3	-0.156036376953	-0.235371359898	2.95478820801
5.305	-0.141464233398	-0.20311865212	2.95234680176
5.31	-0.123153686523	-0.175706998699	2.95112609863
5.315	-0.107360839844	-0.152644242164	2.94990539551
5.32	-0.0866851806641	-0.132720423521	2.9475402832
5.325	-0.0634918212891	-0.114310744801	2.94631958008
5.33	-0.0501403808594	-0.0963331908926	2.94509887695
5.335	-0.0428161621094	-0.0792458262003	2.94631958008
5.34	-0.0196990966797	-0.0633912344486	2.94631958008
5.345	-0.000244140625	-0.0477003037035	2.9475402832
5.35	0.01806640625	-0.0312791523144	2.94631958008
5.355	0.0411834716797	-0.0138756975818	2.9475402832
5.36	0.0716247558594	0.00518132863472	2.9475402832
5.365	0.0996246337891	0.0267018010036	2.94631958008
5.37	0.142196655273	0.0514143186686	2.94631958008
5.375	0.210403442383	0.0815026263466	2.9475402832
5.38	0.301727294922	0.121152563888	2.94509887695
5.385	0.361389160156	0.172513214864	2.94509887695
5.39	0.424713134766	0.232794702144	2.94387817383
5.395	0.485595703125	0.297743421404	2.94387817383
5.4	0.51481628418	0.362889228928	2.9426574707
5.405	0.534271240234	0.422512903774	2.9426574707
5.41	0.553726196289	0.472459010531	2.94143676758
5.415	0.526947021484	0.509886260181	2.94143676758
5.42	0.50993347168	0.531892120101	2.9426574707
5.425	0.473388671875	0.537761891447	2.94143676758
5.43	0.394271850586	0.526806182254	2.9426574707
5.435	0.304168701172	0.496455021054	2.94143676758
5.44	0.209182739258	0.445820637806	2.94021606445
5.445	0.127624511719	0.37787134327	2.94021606445
5.45	0.0679626464844	0.299285818129	2.93899536133
5.455	0.0350799560547	0.219186447693	2.93899536133
5.46	-0.00749206542969	0.14537295387	2.93899536133
5.465	-0.0367126464844	0.0814787450746	2.93655395508
5.47	-0.0489196777344	0.0290301294755	2.93655395508
5.475	-0.0562438964844	-0.0109233488793	2.9377746582
5.48	-0.0525817871094	-0.0384290134705	2.93655395508
5.485	-0.0501403808594	-0.0546245209547	2.93655395508
5.49	-0.0452575683594	-0.0616495973997	2.9377746582
5.495	-0.0428161621094	-0.0621924670744	2.9377746582
5.5	-0.0319061279297	-0.0584933284922	2.93655395508
5.505	-0.0196990966797	-0.0517081521598	2.93655395508
5.51	-0.00993347167969	-0.0425772042274	2.93533325195
5.515	-0.0172576904297	-0.0328512207486	2.9377746582
5.52	-0.0135955810547	-0.0246836133214	2.93655395508
5.525	-0.000244140625	-0.0181736540968	2.93655395508
5.53	-0.00382995605469	-0.0124448395531	2.93655395508
5.535	-0.002685546875	-0.00781944426783	2.9377746582
5.54	0.0009765625	-0.00448112846341	2.93655395508
5.545	-0.002685546875	-0.0021700908313	2.93655395508
5.55	-0.00627136230469	-0.00112509033075	2.93655395508
5.555	-0.0148162841797	-0.00178954601465	2.93655395508
5.56	-0.0233612060547	-0.00452012107888	2.93655395508
5.565	-0.0330505371094	-0.00939253778123	2.93655395508
5.57	-0.0245819091797	-0.0153167371417	2.93411254883
5.575	-0.000244140625	-0.0192079351595	2.93533325195
5.58	0.0314178466797	-0.0172844584866	2.93533325195
5.585	0.0594177246094	-0.00752050841216	2.93411254883
5.59	0.0704040527344	0.00884858127851	2.93411254883
5.595	0.0898590087891	0.0286484322761	2.93533325195
5.6	0.117858886719	0.0500754507436	2.93411254883
5.605	0.153182983398	0.0734592882574	2.93411254883
5.61	0.187286376953	0.0996146233705	2.9328918457
5.615	0.176300048828	0.126575891073	2.9328918457
5.62	0.164169311523	0.148958438821	2.93411254883
5.625	0.141052246094	0.162266450466	2.93411254883
5.63	0.0838317871094	0.163323644533	2.93411254883
5.635	0.025390625	0.149118861739	2.93411254883
5.64	-0.0196990966797	0.119917475619	2.93411254883
5.645	-0.0440368652344	0.0807501452466	2.9328918457
5.65	-0.0695953369141	0.03840426095	2.93411254883
5.655	-0.0781402587891	-0.00156596172984	2.93533325195
5.66	-0.0732574462891	-0.034734402053	2.9328918457
5.665	-0.0769195556641	-0.0585497893493	2.9328918457
5.67	-0.0781402587891	-0.0735395834824	2.9328918457
5.675	-0.0781402587891	-0.0817043842065	2.93167114258
5.68	-0.0988159179688	-0.0860160604209	2.93411254883
5.685	-0.136581420898	-0.0912869028167	2.9328918457
5.69	-0.188919067383	-0.102909477826	2.9328918457
5.695	-0.180374145508	-0.121688089304	2.9328918457
5.7	-0.0476989746094	-0.136026462266	2.9328918457
5.705	0.388168334961	-0.112792625094	2.92922973633
5.71	1.12600708008	0.00500547431063	2.92678833008
5.715	1.8491973877	0.269119559194	2.92556762695
5.72	2.1974029541	0.673282726998	2.92190551758
5.725	1.79197692871	1.11853038605	2.92434692383
5.73	0.975021362305	1.44279324453	2.9280090332
5.735	0.266403198242	1.52095084643	2.93167114258
5.74	-0.0805816650391	1.34457433204	2.93411254883
5.745	-0.193801879883	1.00563413077	2.93655395508
5.75	-0.248580932617	0.620306609556	2.93533325195
5.755	-0.270477294922	0.271981364503	2.93655395508
5.76	-0.270477294922	0.00158248302292	2.93411254883
5.765	-0.277801513672	-0.181943306565	2.9328918457
5.77	-0.274139404297	-0.289385163972	2.93167114258
5.775	-0.259567260742	-0.338909827225	2.93167114258
5.78	-0.240036010742	-0.348397027842	2.93167114258
5.785	-0.230346679688	-0.333521418677	2.92922973633
5.79	-0.206008911133	-0.306491106674	2.9280090332
5.795	-0.182815551758	-0.274708363078	2.9280090332
5.8	-0.175567626953	-0.242856088534	2.9280090332
5.805	-0.156036376953	-0.214207546232	2.9280090332
5.81	-0.137802124023	-0.189443511887	2.92556762695
5.815	-0.131698608398	-0.168294628386	2.92556762695
5.82	-0.101257324219	-0.150017642149	2.92068481445
5.825	-0.0732574462891	-0.132143817781	2.9182434082
5.83	-0.0599060058594	-0.113162873308	2.9182434082
5.835	-0.0403747558594	-0.0937153857127	2.91702270508
5.84	-0.0209197998047	-0.0743115953878	2.91702270508
5.845	-0.00382995605469	-0.0550254417612	2.91580200195
5.85	0.01318359375	-0.0360968349172	2.91458129883
5.855	0.0350799560547	-0.0174686815684	2.91458129883
5.86	0.0618591308594	0.00161477854967	2.91458129883
5.865	0.0923004150391	0.0222859196212	2.91458129883
5.87	0.155624389648	0.0468887569099	2.91458129883
5.875	0.228713989258	0.0795039219986	2.91458129883
5.88	0.284713745117	0.122289391191	2.91458129883
5.885	0.340713500977	0.173303521117	2.91458129883
5.89	0.411285400391	0.229956829966	2.9133605957
5.895	0.461181640625	0.290325870018	2.91213989258
5.9	0.494064331055	0.350758775337	2.9109954834
5.905	0.51481628418	0.406364579072	2.90977478027
5.91	0.513595581055	0.452710845967	2.90977478027
5.915	0.491622924805	0.485782072379	2.9109954834
5.92	0.460037231445	0.502681235696	2.91213989258
5.925	0.422271728516	0.502838386203	2.9109954834
5.93	0.339492797852	0.485972383775	2.91213989258
5.935	0.235961914063	0.449690683319	2.9109954834
5.94	0.158065795898	0.393590703842	2.9109954834
5.945	0.0838317871094	0.322708233367	2.9109954834
5.95	0.019287109375	0.244215149512	2.90977478027
5.955	-0.0172576904297	0.16539763183	2.9109954834
5.96	-0.0452575683594	0.0933235280605	2.90977478027
5.965	-0.0695953369141	0.0324735586891	2.90733337402
5.97	-0.0781402587891	-0.0155591367723	2.90855407715
5.975	-0.0695953369141	-0.0499417386399	2.90733337402
5.98	-0.0708160400391	-0.0709286524898	2.90733337402
5.985	-0.0683746337891	-0.0810605537766	2.90733337402
5.99	-0.0489196777344	-0.0829177837024	2.9061126709
5.995	-0.0440368652344	-0.0782298557655	2.9061126709
6	-0.0501403808594	-0.070121557465	2.90489196777
6.005	-0.0452575683594	-0.061939907284	2.9012298584
6.01	-0.0330505371094	-0.0544998467635	2.90245056152
6.015	-0.0319061279297	-0.0473930914138	2.90245056152
6.02	-0.0306854248047	-0.0410366164508	2.9012298584
6.025	-0.0258026123047	-0.0358314080757	2.9012298584
6.03	-0.0306854248047	-0.0318713430923	2.9012298584
6.035	-0.0379333496094	-0.0298140073751	2.9012298584
6.04	-0.0294647216797	-0.0295753911493	2.9012298584
6.045	-0.0258026123047	-0.0296593486039	2.90000915527
6.05	-0.0330505371094	-0.0294922666623	2.89756774902
6.055	-0.0354919433594	-0.0298449580684	2.90000915527
6.06	-0.0306854248047	-0.0307260786166	2.90000915527
6.065	-0.0440368652344	-0.0319895821206	2.89756774902
6.07	-0.0452575683594	-0.0342744273545	2.89878845215
6.075	-0.0319061279297	-0.0367525913069	2.89878845215
6.08	-0.0135955810547	-0.03684830579	2.89878845215
6.085	0.015625	-0.032101319424	2.89878845215
6.09	0.0472869873047	-0.02084726248	2.89756774902
6.095	0.0691833496094	-0.00319026252906	2.89756774902
6.1	0.0826110839844	0.0184578936596	2.89878845215
6.105	0.109390258789	0.0415586569129	2.89756774902
6.11	0.134948730469	0.0653803578688	2.89878845215
6.115	0.132507324219	0.08864173467	2.89756774902
6.12	0.120300292969	0.107725853339	2.89756774902
6.125	0.110610961914	0.119548128726	2.89756774902
6.13	0.0679626464844	0.122192860646	2.89756774902
6.135	0.02294921875	0.113377515247	2.89878845215
6.14	-0.0111541748047	0.0928588389314	2.89756774902
6.145	-0.0440368652344	0.0636305850036	2.89756774902
6.15	-0.0695953369141	0.0297260774341	2.89756774902
6.155	-0.0781402587891	-0.00449121189449	2.89878845215
6.16	-0.0744781494141	-0.0343468141839	2.89756774902
6.165	-0.0891265869141	-0.0572801865224	2.89756774902
6.17	-0.0793609619141	-0.0733093623408	2.89878845215
6.175	-0.0805816650391	-0.0828162110511	2.89756774902
6.18	-0.0902709960938	-0.0874701341143	2.8963470459
6.185	-0.108581542969	-0.090673537892	2.8963470459
6.19	-0.147567749023	-0.0965073306724	2.89756774902
6.195	-0.179153442383	-0.108457098821	2.89756774902
6.2	-0.109802246094	-0.122723139331	2.89756774902
6.205	0.126403808594	-0.119657780966	2.89512634277
6.21	0.735153198242	-0.0555590466013	2.89268493652
6.215	1.45101928711	0.126814904886	2.89024353027
6.22	2.0451965332	0.455246658334	2.88536071777
6.225	2.08418273926	0.884550462452	2.8865814209
6.23	1.43034362793	1.28509084149	2.88780212402
6.235	0.637725830078	1.50248248169	2.8914642334
6.24	0.0618591308594	1.45982633855	2.89512634277
6.245	-0.143905639648	1.19795800806	2.89756774902
6.25	-0.225463867188	0.827287477315	2.8963470459
6.255	-0.246139526367	0.453534530198	2.89756774902
6.26	-0.255905151367	0.141112656216	2.89512634277
6.265	-0.272918701172	-0.0861351921246	2.89268493652
6.27	-0.271697998047	-0.231523925368	2.89390563965
6.275	-0.258346557617	-0.30988148024	2.89268493652
6.28	-0.247360229492	-0.339018196092	2.89268493652
6.285	-0.226684570313	-0.335987614496	2.8914642334
6.29	-0.206008911133	-0.314327751771	2.89268493652
6.295	-0.195022583008	-0.284134379252	2.89268493652
6.3	-0.187698364258	-0.253010297875	2.8914642334
6.305	-0.168243408203	-0.225091652225	2.89024353027
6.31	-0.146347045898	-0.200758246407	2.8914642334
6.315	-0.121932983398	-0.178634286672	2.89024353027
6.32	-0.102478027344	-0.157519291851	2.89024353027
6.325	-0.0842437744141	-0.137034381359	2.88780212402
6.33	-0.0683746337891	-0.117327455266	2.8816986084
6.335	-0.0562438964844	-0.0987746796481	2.8816986084
6.34	-0.0342712402344	-0.0813480854207	2.87925720215
6.345	-0.00749206542969	-0.0638687809426	2.87803649902
6.35	0.004638671875	-0.045544965991	2.87803649902
6.355	0.0338592529297	-0.0264844576741	2.87803649902
6.36	0.0679626464844	-0.00574995703565	2.8816986084
6.365	0.0971832275391	0.0178242521206	2.87925720215
6.37	0.149520874023	0.0451286587472	2.87925720215
6.375	0.229858398438	0.0791121889444	2.87925720215
6.38	0.299285888672	0.123139182632	2.87925720215
6.385	0.366271972656	0.177183430356	2.87925720215
6.39	0.442947387695	0.239102019887	2.87803649902
6.395	0.503829956055	0.306440804113	2.87803649902
6.4	0.525726318359	0.374184007465	2.8768157959
6.405	0.545257568359	0.435355516548	2.87803649902
6.41	0.564712524414	0.485716812523	2.87559509277
6.415	0.558609008789	0.523882913997	2.87803649902
6.42	0.531829833984	0.548107573662	2.87803649902
6.425	0.488037109375	0.556233006153	2.87803649902
6.43	0.407623291016	0.545955797781	2.87803649902
6.435	0.302947998047	0.514256004093	2.87925720215
6.44	0.215286254883	0.46045844689	2.87803649902
6.445	0.136169433594	0.389153402408	2.87925720215
6.45	0.0655212402344	0.307792956495	2.87925720215
6.455	0.021728515625	0.224312061269	2.87925720215
6.46	-0.0123748779297	0.146319945585	2.87925720215
6.465	-0.0391540527344	0.0790168353287	2.87803649902
6.47	-0.0671539306641	0.024054284781	2.8768157959
6.475	-0.0708160400391	-0.0186846224218	2.87925720215
6.48	-0.0732574462891	-0.0492674917161	2.87803649902
6.485	-0.0732574462891	-0.0686226939608	2.87803649902
6.49	-0.0610504150391	-0.0784339248375	2.87803649902
6.495	-0.0599060058594	-0.0805618164021	2.8768157959
6.5	-0.0622711181641	-0.0779586810074	2.87803649902
6.505	-0.0501403808594	-0.0731149253222	2.87803649902
6.51	-0.0440368652344	-0.0667713250464	2.87803649902
6.515	-0.0428161621094	-0.0596815913396	2.87925720215
6.52	-0.0391540527344	-0.0529700165002	2.87803649902
6.525	-0.0342712402344	-0.0470634474034	2.87803649902
6.53	-0.0294647216797	-0.041801533741	2.87803649902
6.535	-0.0330505371094	-0.0373243362112	2.87803649902
6.54	-0.0342712402344	-0.0342246565674	2.8768157959
6.545	-0.0379333496094	-0.0328214186111	2.87803649902
6.55	-0.0440368652344	-0.0331872058389	2.87803649902
6.555	-0.0428161621094	-0.0350312824239	2.87803649902
6.56	-0.0440368652344	-0.0374873704407	2.87925720215
6.565	-0.0391540527344	-0.0396222983986	2.87925720215
6.57	-0.0501403808594	-0.0413179500834	2.87925720215
6.575	-0.0489196777344	-0.0432167385044	2.8816986084
6.58	-0.0440368652344	-0.0450339936365	2.88047790527
6.585	-0.0270233154297	-0.0451841318556	2.8816986084
6.59	0.005859375	-0.0411747348574	2.8816986084
6.595	0.0326385498047	-0.0308053575344	2.88291931152
6.6	0.0581970214844	-0.014054757	2.88536071777
6.605	0.0765075683594	0.0071814524747	2.88536071777
6.61	0.0971832275391	0.0305273416909	2.88536071777
6.615	0.0984039306641	0.053411468051	2.8865814209
6.62	0.105728149414	0.0732500611318	2.88780212402
6.625	0.110610961914	0.0888873884723	2.88536071777
6.63	0.0813903808594	0.0990133567767	2.8865814209
6.635	0.0338592529297	0.0998968148286	2.88780212402
6.64	-0.0123748779297	0.0882054161768	2.88780212402
6.645	-0.0501403808594	0.0642863154284	2.8865814209
6.65	-0.0927124023438	0.0311860367849	2.88780212402
6.655	-0.112243652344	-0.00689280609145	2.88902282715
6.66	-0.113464355469	-0.0442158460314	2.88902282715
6.665	-0.112243652344	-0.0752373814647	2.88902282715
6.67	-0.117126464844	-0.0976043822407	2.89024353027
6.675	-0.118347167969	-0.112038162632	2.8914642334
6.68	-0.123153686523	-0.120466475728	2.89268493652
6.685	-0.128036499023	-0.125111006331	2.8914642334
6.69	-0.151153564453	-0.128776255265	2.89390563965
6.695	-0.199905395508	-0.135890669873	2.89390563965
6.7	-0.192581176758	-0.148615195422	2.89512634277
6.705	-0.0415954589844	-0.156358828758	2.89268493652
6.71	0.399154663086	-0.125622923993	2.89024353027
6.715	1.0858001709	-0.00232728947585	2.88780212402
6.72	1.76397705078	0.258709461925	2.88536071777
6.725	2.11340332031	0.649687498561	2.88291931152
6.73	1.7188873291	1.07775127876	2.8865814209
6.735	0.934814453125	1.38861436862	2.88780212402
6.74	0.238403320313	1.46180620293	2.89268493652
6.745	-0.0988159179688	1.28862189346	2.89512634277
6.75	-0.224243164063	0.957198050901	2.89878845215
6.755	-0.276580810547	0.579563455112	2.90000915527
6.76	-0.287567138672	0.237763839233	2.9012298584
6.765	-0.290008544922	-0.0268810607144	2.90000915527
6.77	-0.288787841797	-0.205421901429	2.9012298584
6.775	-0.269256591797	-0.307769057462	2.9012298584
6.78	-0.251022338867	-0.351057876279	2.9012298584
6.785	-0.234008789063	-0.353944881886	2.9012298584
6.79	-0.215698242188	-0.333173441369	2.90000915527
6.795	-0.201126098633	-0.301452881462	2.90000915527
6.8	-0.188919067383	-0.26744840766	2.9012298584
6.805	-0.169464111328	-0.235899431555	2.9012298584
6.81	-0.148712158203	-0.208064302043	2.90000915527
6.815	-0.131698608398	-0.183595018593	2.9012298584
6.82	-0.107360839844	-0.161646546449	2.9012298584
6.825	-0.0842437744141	-0.1408911426	2.89878845215
6.83	-0.0732574462891	-0.120790013059	2.90000915527
6.835	-0.0647125244141	-0.102245606185	2.9012298584
6.84	-0.0440368652344	-0.0856397523794	2.89878845215
6.845	-0.0148162841797	-0.0694017329981	2.9012298584
6.85	0.004638671875	-0.0517936817497	2.9012298584
6.855	0.025390625	-0.0326606891837	2.9012298584
6.86	0.0630798339844	-0.011757456221	2.9012298584
6.865	0.0898590087891	0.0118292262538	2.90245056152
6.87	0.139831542969	0.0388980147362	2.90245056152
6.875	0.205520629883	0.0715607912549	2.90489196777
6.88	0.256713867188	0.111675259839	2.9061126709
6.885	0.337051391602	0.159512094184	2.90489196777
6.89	0.418609619141	0.215855978869	2.9061126709
6.895	0.483154296875	0.280195288364	2.9061126709
6.9	0.526947021484	0.348332282368	2.9061126709
6.905	0.553726196289	0.414017303298	2.9061126709
6.91	0.579284667969	0.472045779167	2.9061126709
6.915	0.598815917969	0.520095339889	2.90733337402
6.92	0.595153808594	0.557182838895	2.9061126709
6.925	0.551284790039	0.580574784615	2.9061126709
6.93	0.47705078125	0.58527363712	2.9061126709
6.935	0.396713256836	0.567332962632	2.90855407715
6.94	0.302947998047	0.526406095786	2.90977478027
6.945	0.211624145508	0.465156289346	2.90855407715
6.95	0.116638183594	0.388080366571	2.9109954834
6.955	0.0581970214844	0.301770893767	2.91213989258
6.96	0.01806640625	0.215221530694	2.91213989258
6.965	-0.0184783935547	0.136440430208	2.91213989258
6.97	-0.0464782714844	0.069502375499	2.91213989258
6.975	-0.0610504150391	0.0157992816287	2.91213989258
6.98	-0.0659332275391	-0.0243464308013	2.91458129883
6.985	-0.0622711181641	-0.0513702863087	2.9133605957
6.99	-0.0513610839844	-0.0663380893827	2.91213989258
6.995	-0.0464782714844	-0.0712138197006	2.91458129883
7	-0.0489196777344	-0.0693852612863	2.9133605957
7.005	-0.0489196777344	-0.0645968704111	2.9133605957
7.01	-0.0342712402344	-0.0586732537626	2.91580200195
7.015	-0.0342712402344	-0.051932869991	2.91458129883
7.02	-0.0367126464844	-0.0454714420041	2.91702270508
7.025	-0.0123748779297	-0.039442024972	2.91580200195
7.03	0.002197265625	-0.0319325646897	2.91458129883
7.035	-0.0184783935547	-0.0235674825777	2.91702270508
7.04	-0.0294647216797	-0.0180673711364	2.9182434082
7.045	-0.0319061279297	-0.0170712776573	2.92068481445
7.05	-0.0294647216797	-0.0190935672623	2.92190551758
7.055	-0.0172576904297	-0.0215514083297	2.92434692383
7.06	-0.00627136230469	-0.0220242101011	2.92434692383
7.065	-0.0245819091797	-0.0207014284098	2.92434692383
7.07	-0.0209197998047	-0.0197532842408	2.92556762695
7.075	0.004638671875	-0.018492110544	2.92556762695
7.08	0.02294921875	-0.013937951012	2.92556762695
7.085	0.0424041748047	-0.00483867950518	2.92556762695
7.09	0.0581970214844	0.00818510588815	2.92556762695
7.095	0.0910797119141	0.0246073073796	2.92556762695
7.1	0.111831665039	0.0443903015052	2.92678833008
7.105	0.158065795898	0.0677401254271	2.92556762695
7.11	0.187286376953	0.0951065326728	2.9280090332
7.115	0.193389892578	0.124508924091	2.92678833008
7.12	0.179962158203	0.150778781059	2.9280090332
7.125	0.164169311523	0.168974638409	2.93045043945
7.13	0.122741699219	0.17585429223	2.93167114258
7.135	0.0630798339844	0.168595892702	2.93167114258
7.14	0.0301971435547	0.14679091083	2.93411254883
7.145	-0.00382995605469	0.114499437866	2.93411254883
7.15	-0.0354919433594	0.0768922104686	2.93533325195
7.155	-0.0562438964844	0.0381618811928	2.93655395508
7.16	-0.0599060058594	0.00248178198393	2.93655395508
7.165	-0.0622711181641	-0.0265185389475	2.93655395508
7.17	-0.0586853027344	-0.0471040482794	2.93655395508
7.175	-0.0586853027344	-0.05953073036	2.9377746582
7.18	-0.0659332275391	-0.0658206801084	2.94021606445
7.185	-0.0793609619141	-0.0692200081815	2.93899536133
7.19	-0.124374389648	-0.0742202261637	2.9377746582
7.195	-0.156036376953	-0.0853182763247	2.94021606445
7.2	-0.0939331054688	-0.0995002865319	2.93899536133
7.205	0.164169311523	-0.0964060825291	2.9377746582
7.21	0.776580810547	-0.0304561486487	2.93411254883
7.215	1.48268127441	0.155221153797	2.93167114258
7.22	2.11218261719	0.487958378103	2.93045043945
7.225	2.22540283203	0.927499202589	2.9280090332
7.23	1.54234313965	1.34643546522	2.93167114258
7.235	0.684036254883	1.58053927326	2.9377746582
7.24	0.0521697998047	1.54069129664	2.9426574707
7.245	-0.158477783203	1.26585244335	2.94509887695
7.25	-0.235153198242	0.874036029061	2.94509887695
7.255	-0.258346557617	0.479127553706	2.9475402832
7.26	-0.271697998047	0.149276719391	2.94631958008
7.265	-0.280242919922	-0.090407513425	2.94990539551
7.27	-0.271697998047	-0.242528564515	2.94631958008
7.275	-0.255905151367	-0.322391753287	2.9475402832
7.28	-0.238815307617	-0.34934102697	2.94868469238
7.285	-0.219360351563	-0.342090900213	2.94868469238
7.29	-0.201126098633	-0.315934386863	2.94631958008
7.295	-0.190139770508	-0.282219400422	2.9475402832
7.3	-0.181594848633	-0.248759386926	2.94631958008
7.305	-0.164581298828	-0.219518985011	2.94631958008
7.31	-0.146347045898	-0.194944386427	2.94509887695
7.315	-0.128036499023	-0.173887246959	2.94631958008
7.32	-0.114685058594	-0.155299150087	2.94509887695
7.325	-0.0830230712891	-0.13781819313	2.94631958008
7.33	-0.0634918212891	-0.119669266487	2.94631958008
7.335	-0.0501403808594	-0.100662220887	2.94509887695
7.34	-0.0270233154297	-0.0815411632862	2.94631958008
7.345	-0.00627136230469	-0.0621862737906	2.94631958008
7.35	0.009521484375	-0.0425782522807	2.94509887695
7.355	0.0411834716797	-0.0225888963377	2.94631958008
7.36	0.0777282714844	-0.000764896489171	2.94631958008
7.365	0.115417480469	0.0245053325218	2.94509887695
7.37	0.141052246094	0.0531532120593	2.9475402832
7.375	0.201858520508	0.0850848782381	2.94868469238
7.38	0.266403198242	0.122509635922	2.94990539551
7.385	0.338272094727	0.167805746493	2.94990539551
7.39	0.427154541016	0.222323473044	2.9475402832
7.395	0.49040222168	0.285750285334	2.94990539551
7.4	0.520843505859	0.353194800098	2.95112609863
7.405	0.529388427734	0.416290466802	2.95112609863
7.41	0.548843383789	0.468694638344	2.95112609863
7.415	0.545257568359	0.508194363131	2.95112609863
7.42	0.534271240234	0.534118581955	2.95112609863
7.425	0.494064331055	0.545548601557	2.95234680176
7.43	0.408843994141	0.539593225819	2.95112609863
7.435	0.338272094727	0.513213267254	2.95356750488
7.44	0.266403198242	0.467898041807	2.95234680176
7.445	0.175079345703	0.407532686232	2.95234680176
7.45	0.0801696777344	0.334784879524	2.95356750488
7.455	0.019287109375	0.253592916983	2.95478820801
7.46	-0.0160369873047	0.171604978015	2.95356750488
7.465	-0.0452575683594	0.0969388244665	2.95478820801
7.47	-0.0647125244141	0.0344284989161	2.95478820801
7.475	-0.0708160400391	-0.0139931344052	2.95356750488
7.48	-0.0695953369141	-0.0479549789573	2.95478820801
7.485	-0.0756988525391	-0.0689889439585	2.95600891113
7.49	-0.0695953369141	-0.0800087336925	2.95478820801
7.495	-0.0538024902344	-0.0830598597954	2.95478820801
7.5	-0.0391540527344	-0.0792144538785	2.95600891113
7.505	-0.0294647216797	-0.0701597747191	2.95478820801
7.51	-0.0245819091797	-0.0584189615352	2.95478820801
7.515	-0.0209197998047	-0.0464571423606	2.95600891113
7.52	-0.0196990966797	-0.0359744652499	2.95600891113
7.525	-0.0135955810547	-0.0275904551006	2.95478820801
7.53	-0.00505065917969	-0.020772034803	2.95600891113
7.535	-0.000244140625	-0.0146900899887	2.95600891113
7.54	0.0009765625	-0.00919866452225	2.95600891113
7.545	-0.000244140625	-0.00473293451103	2.95600891113
7.55	-0.0123748779297	-0.00221162877624	2.95600891113
7.555	-0.0148162841797	-0.00240002945375	2.95600891113
7.56	-0.00146484375	-0.00405527155796	2.95600891113
7.565	-0.000244140625	-0.00495094824106	2.95600891113
7.57	-0.00382995605469	-0.00474465228739	2.95722961426
7.575	0.014404296875	-0.00346780799534	2.95600891113
7.58	0.024169921875	6.73762043445E-005	2.95600891113
7.585	0.0521697998047	0.00709477746935	2.95478820801
7.59	0.0789489746094	0.0188121942113	2.95478820801
7.595	0.119079589844	0.0362877613686	2.95600891113
7.6	0.151962280273	0.0598254443009	2.95600891113
7.605	0.188507080078	0.0885722576382	2.95356750488
7.61	0.200637817383	0.120024721323	2.95478820801
7.615	0.189727783203	0.149305825118	2.95600891113
7.62	0.177520751953	0.171105748554	2.95478820801
7.625	0.164169311523	0.182958166682	2.95600891113
7.63	0.116638183594	0.183743505387	2.95600891113
7.635	0.0533905029297	0.171021953975	2.95600891113
7.64	0.015625	0.144234674816	2.95845031738
7.645	-0.00146484375	0.108282184277	2.95600891113
7.65	-0.0270233154297	0.0699583236952	2.95478820801
7.655	-0.0513610839844	0.033270742187	2.95722961426
7.66	-0.0732574462891	-0.000276907505795	2.95722961426
7.665	-0.0854644775391	-0.0297959609394	2.95600891113
7.67	-0.0781402587891	-0.053685136852	2.95722961426
7.675	-0.0659332275391	-0.0697215083446	2.95600891113
7.68	-0.0683746337891	-0.0775851100234	2.95478820801
7.685	-0.0914916992188	-0.0807067475078	2.95722961426
7.69	-0.134140014648	-0.0851331358141	2.95600891113
7.695	-0.162139892578	-0.0956774314725	2.95722961426
7.7	-0.0891265869141	-0.108467457325	2.95722961426
7.705	0.177520751953	-0.102256144831	2.95112609863
7.71	0.808242797852	-0.0307794732747	2.95112609863
7.715	1.5447845459	0.164077719484	2.94631958008
7.72	2.15475463867	0.508849869102	2.94387817383
7.725	2.19129943848	0.955674101584	2.94387817383
7.73	1.47421264648	1.36866783757	2.94631958008
7.735	0.638946533203	1.58580727472	2.95112609863
7.74	0.0387420654297	1.52872135505	2.95600891113
7.745	-0.152374267578	1.2445760552	2.95478820801
7.75	-0.234008789063	0.852105169556	2.95356750488
7.755	-0.259567260742	0.461252497713	2.95234680176
7.76	-0.270477294922	0.136691271801	2.95112609863
7.765	-0.272918701172	-0.0976749167172	2.95112609863
7.77	-0.268035888672	-0.244938443142	2.95112609863
7.775	-0.258346557617	-0.321404821316	2.95112609863
7.78	-0.238815307617	-0.346921931016	2.95234680176
7.785	-0.219360351563	-0.339526463979	2.95112609863
7.79	-0.197463989258	-0.313602739056	2.94990539551
7.795	-0.176788330078	-0.279478687855	2.94990539551
7.8	-0.163360595703	-0.244081256676	2.94868469238
7.805	-0.147567749023	-0.211668101736	2.94631958008
7.81	-0.124374389648	-0.18355725736	2.94631958008
7.815	-0.117126464844	-0.159546742367	2.94631958008
7.82	-0.101257324219	-0.13951266966	2.94509887695
7.825	-0.0830230712891	-0.122491408549	2.9426574707
7.83	-0.0634918212891	-0.106777329135	2.94143676758
7.835	-0.0428161621094	-0.0910088049995	2.94143676758
7.84	-0.0172576904297	-0.07413554507	2.94143676758
7.845	-0.000244140625	-0.0557357502647	2.94143676758
7.85	0.011962890625	-0.0366685275648	2.94143676758
7.855	0.0424041748047	-0.0174760353259	2.9426574707
7.86	0.0704040527344	0.00289996876228	2.94143676758
7.865	0.0996246337891	0.0254337903227	2.9426574707
7.87	0.159286499023	0.0516107400464	2.94143676758
7.875	0.205520629883	0.0837345458825	2.94143676758
7.88	0.265182495117	0.122625718383	2.94143676758
7.885	0.330947875977	0.168340043159	2.94021606445
7.89	0.408843994141	0.221388089722	2.9377746582
7.895	0.475830078125	0.28156518338	2.9377746582
7.9	0.50993347168	0.345491235387	2.9377746582
7.905	0.533050537109	0.406768097728	2.93655395508
7.91	0.550064086914	0.459925788317	2.93655395508
7.915	0.530609130859	0.501020001764	2.93655395508
7.92	0.49284362793	0.525845939681	2.93655395508
7.925	0.447830200195	0.53163145546	2.9377746582
7.93	0.378402709961	0.517886966526	2.93655395508
7.935	0.301727294922	0.485054258366	2.93899536133
7.94	0.233520507813	0.435468590995	2.9377746582
7.945	0.139831542969	0.372641298185	2.93899536133
7.95	0.0533905029297	0.29911669237	2.93899536133
7.955	0.00341796875	0.219295581627	2.93899536133
7.96	-0.0258026123047	0.141160614315	2.94021606445
7.965	-0.0538024902344	0.0719799363614	2.9377746582
7.97	-0.0695953369141	0.0153088846723	2.93655395508
7.975	-0.0720367431641	-0.0276138450255	2.93655395508
7.98	-0.0744781494141	-0.0569210021273	2.93533325195
7.985	-0.0744781494141	-0.074461765534	2.93411254883
7.99	-0.0708160400391	-0.0829226111944	2.93533325195
7.995	-0.0586853027344	-0.0844590937815	2.93411254883
8	-0.0476989746094	-0.0805115826668	2.9328918457
8.005	-0.0367126464844	-0.0725153294297	2.9328918457
8.01	-0.0245819091797	-0.0619233114418	2.9328918457
8.015	-0.0245819091797	-0.0503831354349	2.93167114258
8.02	-0.0379333496094	-0.0405624334091	2.93167114258
8.025	-0.0245819091797	-0.0340155024654	2.93167114258
8.03	-0.0184783935547	-0.0293892469098	2.93167114258
8.035	-0.00749206542969	-0.0248753955645	2.93167114258
8.04	-0.0123748779297	-0.0201798029086	2.93167114258
8.045	-0.0270233154297	-0.0168807378413	2.93167114258
8.05	-0.0391540527344	-0.0170136527508	2.93045043945
8.055	-0.0245819091797	-0.0199326761159	2.93167114258
8.06	-0.0209197998047	-0.0227294970635	2.93167114258
8.065	-0.0245819091797	-0.0241089488576	2.93045043945
8.07	-0.0196990966797	-0.0244804615336	2.92922973633
8.075	-0.00749206542969	-0.0234430046954	2.93045043945
8.08	0.014404296875	-0.0195424021305	2.92922973633
8.085	0.0448455810547	-0.0109657558108	2.92922973633
8.09	0.0667419433594	0.00315686134616	2.9280090332
8.095	0.0826110839844	0.0215576683659	2.9280090332
8.1	0.0959625244141	0.0417572807316	2.93045043945
8.105	0.131286621094	0.0627076778057	2.9280090332
8.11	0.171417236328	0.0858877537823	2.92678833008
8.115	0.197052001953	0.11240179579	2.92678833008
8.12	0.162948608398	0.138306163402	2.9280090332
8.125	0.150741577148	0.156603568626	2.92678833008
8.13	0.106948852539	0.163063654547	2.92678833008
8.135	0.0533905029297	0.155435590214	2.92678833008
8.14	0.014404296875	0.133526158986	2.92678833008
8.145	-0.0160369873047	0.101163800571	2.9280090332
8.15	-0.0476989746094	0.0635645492362	2.9280090332
8.155	-0.0634918212891	0.0252737019251	2.9280090332
8.16	-0.0671539306641	-0.00937824678207	2.9280090332
8.165	-0.0818023681641	-0.0375885039732	2.9280090332
8.17	-0.0854644775391	-0.0591144954908	2.92678833008
8.175	-0.0744781494141	-0.0738877713458	2.9280090332
8.18	-0.0732574462891	-0.0817128958918	2.9280090332
8.185	-0.0975952148438	-0.0851801857479	2.92678833008
8.19	-0.134140014648	-0.0897394843398	2.9280090332
8.195	-0.177932739258	-0.100509268921	2.93167114258
8.2	-0.140243530273	-0.11633380918	2.9280090332
8.205	0.0314178466797	-0.122348128275	2.92678833008
8.21	0.575698852539	-0.0797424229266	2.92434692383
8.215	1.30979919434	0.0709150411925	2.92068481445
8.22	1.98431396484	0.37086927017	2.9182434082
8.225	2.1925201416	0.7946032202	2.91702270508
8.23	1.62145996094	1.22500550782	2.9182434082
8.235	0.796035766602	1.49810498294	2.9231262207
8.24	0.149520874023	1.51112118271	2.92678833008
8.245	-0.113464355469	1.28396331967	2.92922973633
8.25	-0.215698242188	0.92179662418	2.93045043945
8.255	-0.253463745117	0.536753901917	2.93167114258
8.26	-0.272918701172	0.202413221364	2.93045043945
8.265	-0.282684326172	-0.0492843031466	2.93045043945
8.27	-0.272918701172	-0.215239868703	2.9280090332
8.275	-0.251022338867	-0.306942547844	2.92922973633
8.28	-0.247360229492	-0.342565426525	2.9280090332
8.285	-0.236373901367	-0.342179365544	2.92678833008
8.29	-0.218139648438	-0.322131149262	2.92678833008
8.295	-0.195022583008	-0.292856676878	2.92678833008
8.3	-0.192581176758	-0.261359886313	2.92556762695
8.305	-0.173126220703	-0.232392970298	2.92434692383
8.31	-0.153594970703	-0.207206839098	2.92190551758
8.315	-0.134140014648	-0.184930662732	2.92068481445
8.32	-0.108581542969	-0.164321143919	2.9182434082
8.325	-0.0793609619141	-0.1437307177	2.91213989258
8.33	-0.0586853027344	-0.122120315422	2.91213989258
8.335	-0.0464782714844	-0.100177242393	2.90977478027
8.34	-0.0306854248047	-0.0793110292335	2.90855407715
8.345	-0.0196990966797	-0.060297756579	2.90733337402
8.35	-0.00993347167969	-0.043511552278	2.90855407715
8.355	0.01318359375	-0.0284438961033	2.90855407715
8.36	0.0546112060547	-0.0125073353915	2.90733337402
8.365	0.0826110839844	0.00709621168424	2.90855407715
8.37	0.121520996094	0.0311753241429	2.90733337402
8.375	0.199493408203	0.0614909844644	2.90733337402
8.38	0.267623901367	0.101411773734	2.90733337402
8.385	0.324844360352	0.151212666789	2.90855407715
8.39	0.389389038086	0.208083006526	2.90733337402
8.395	0.452713012695	0.269452118174	2.9061126709
8.4	0.478271484375	0.331708628833	2.90733337402
8.405	0.50505065918	0.389428290441	2.9061126709
8.41	0.530609130859	0.439094686042	2.9061126709
8.415	0.525726318359	0.479003820908	2.90733337402
8.42	0.506271362305	0.506580954593	2.9061126709
8.425	0.470947265625	0.519354526151	2.9061126709
8.43	0.403961181641	0.515243643774	2.90489196777
8.435	0.311492919922	0.491511680657	2.9061126709
8.44	0.239624023438	0.44757193725	2.9061126709
8.445	0.161727905273	0.387311739121	2.9061126709
8.45	0.0826110839844	0.315992367915	2.9061126709
8.455	0.0338592529297	0.239252223314	2.90733337402
8.46	-0.0111541748047	0.163782348951	2.9061126709
8.465	-0.0489196777344	0.0947191526593	2.9061126709
8.47	-0.0659332275391	0.0352050801893	2.90367126465
8.475	-0.0720367431641	-0.0122241389856	2.90245056152
8.48	-0.0842437744141	-0.0468690284271	2.9012298584
8.485	-0.0769195556641	-0.0699034547927	2.90000915527
8.49	-0.0634918212891	-0.0822451628893	2.89756774902
8.495	-0.0489196777344	-0.0848016705284	2.89878845215
8.5	-0.0415954589844	-0.0797721481415	2.89878845215
8.505	-0.0306854248047	-0.0700885094813	2.89756774902
8.51	-0.0209197998047	-0.0581078299285	2.89756774902
8.515	-0.0209197998047	-0.0458038876104	2.89756774902
8.52	-0.0184783935547	-0.0350482404866	2.89756774902
8.525	-0.0135955810547	-0.0265882675444	2.89756774902
8.53	-0.0123748779297	-0.0201989848626	2.89756774902
8.535	-0.00505065917969	-0.0153313306673	2.89756774902
8.54	-0.00505065917969	-0.0113781745676	2.89878845215
8.545	-0.0160369873047	-0.00877318438643	2.8963470459
8.55	-0.0209197998047	-0.00855082143728	2.8963470459
8.555	-0.0258026123047	-0.0107238736663	2.89756774902
8.56	-0.0221405029297	-0.0141808522466	2.8963470459
8.565	-0.0233612060547	-0.0175750616763	2.89756774902
8.57	-0.0160369873047	-0.019917883834	2.89756774902
8.575	-0.0172576904297	-0.0207481740832	2.89512634277
8.58	-0.00993347167969	-0.0201182391388	2.8963470459
8.585	-0.000244140625	-0.0178199558246	2.89756774902
8.59	0.0277557373047	-0.0126017173278	2.89512634277
8.595	0.0546112060547	-0.00264106899568	2.89512634277
8.6	0.0630798339844	0.0119740841309	2.89756774902
8.605	0.0923004150391	0.0295497216344	2.89512634277
8.61	0.117858886719	0.0496039058081	2.89512634277
8.615	0.139831542969	0.0718962799495	2.8963470459
8.62	0.173858642578	0.0959519399794	2.89512634277
8.625	0.161727905273	0.120029370103	2.89512634277
8.63	0.143417358398	0.139280373415	2.89512634277
8.635	0.112976074219	0.14895202594	2.89390563965
8.64	0.0704040527344	0.146510508294	2.89512634277
8.645	0.02294921875	0.131040775314	2.89390563965
8.65	-0.0282440185547	0.103314278865	2.89512634277
8.655	-0.0525817871094	0.0666408544242	2.8963470459
8.66	-0.0622711181641	0.0272803531059	2.89756774902
8.665	-0.0769195556641	-0.00883107862184	2.89512634277
8.67	-0.0879058837891	-0.0389863595352	2.8963470459
8.675	-0.0842437744141	-0.0621683201311	2.8963470459
8.68	-0.0830230712891	-0.0777556404573	2.8963470459
8.685	-0.0830230712891	-0.0864499728809	2.8963470459
8.69	-0.0866851806641	-0.0902625350822	2.89756774902
8.695	-0.112243652344	-0.0924875992562	2.8963470459
8.7	-0.163360595703	-0.0984065007276	2.8963470459
8.705	-0.135360717773	-0.109653485178	2.8963470459
8.71	0.01806640625	-0.114142388735	2.89512634277
8.715	0.49040222168	-0.0772421339372	2.89268493652
8.72	1.19902038574	0.0565518217652	2.8914642334
8.725	1.90153503418	0.332888295036	2.88780212402
8.73	2.16818237305	0.738144613415	2.88291931152
8.735	1.67143249512	1.16611861634	2.88780212402
8.74	0.904373168945	1.45737576562	2.8914642334
8.745	0.234741210938	1.50307007049	2.89268493652
8.75	-0.0939331054688	1.30723089549	2.8963470459
8.755	-0.191360473633	0.963029749582	2.89756774902
8.76	-0.234008789063	0.583258065113	2.89756774902
8.765	-0.252243041992	0.246799996943	2.89756774902
8.77	-0.257125854492	-0.0101452911207	2.8963470459
8.775	-0.254684448242	-0.181750882559	2.89512634277
8.78	-0.262008666992	-0.280057345556	2.89390563965
8.785	-0.253463745117	-0.324343122731	2.89268493652
8.79	-0.229125976563	-0.332315683721	2.89268493652
8.795	-0.208374023438	-0.31736079831	2.89268493652
8.8	-0.195022583008	-0.29023617633	2.8914642334
8.805	-0.175567626953	-0.25904489056	2.8914642334
8.81	-0.156036376953	-0.22829728853	2.8914642334
8.815	-0.147567749023	-0.200351475991	2.89024353027
8.82	-0.123153686523	-0.176131757988	2.8914642334
8.825	-0.0891265869141	-0.154000841935	2.8914642334
8.83	-0.0659332275391	-0.131645301385	2.89024353027
8.835	-0.0586853027344	-0.109260499061	2.8914642334
8.84	-0.0501403808594	-0.0888590467475	2.89024353027
8.845	-0.0330505371094	-0.0712865228693	2.88902282715
8.85	-0.00993347167969	-0.0553105142778	2.88902282715
8.855	0.009521484375	-0.0392489584606	2.88780212402
8.86	0.0314178466797	-0.0222375886233	2.89024353027
8.865	0.0594177246094	-0.00368873490001	2.88902282715
8.87	0.0910797119141	0.0172476168561	2.88780212402
8.875	0.141052246094	0.0420130997666	2.88902282715
8.88	0.200637817383	0.0729119512395	2.88902282715
8.885	0.260299682617	0.111680801604	2.88780212402
8.89	0.328506469727	0.158566216506	2.88902282715
8.895	0.393051147461	0.212814698114	2.88902282715
8.9	0.4794921875	0.273763412717	2.88780212402
8.905	0.533050537109	0.340184355127	2.88780212402
8.91	0.546478271484	0.406588747964	2.88780212402
8.915	0.540374755859	0.464159652462	2.88780212402
8.92	0.530609130859	0.506368548363	2.88780212402
8.925	0.524505615234	0.531769386609	2.88780212402
8.93	0.49528503418	0.541855034353	2.88780212402
8.935	0.407623291016	0.535525851083	2.88780212402
8.94	0.326065063477	0.509093145121	2.88902282715
8.945	0.249389648438	0.462544808846	2.88780212402
8.95	0.153182983398	0.399417828984	2.88902282715
8.955	0.0838317871094	0.324173070298	2.89024353027
8.96	0.0289764404297	0.243485990811	2.89024353027
8.965	-0.0148162841797	0.164730587924	2.8914642334
8.97	-0.0501403808594	0.0932571070234	2.89024353027
8.975	-0.0647125244141	0.0326021613473	2.89268493652
8.98	-0.0781402587891	-0.0151330968237	2.89268493652
8.985	-0.0927124023438	-0.050289210302	2.8914642334
8.99	-0.0963745117188	-0.074904350784	2.8914642334
8.995	-0.100036621094	-0.0909722069545	2.89268493652
9	-0.0963745117188	-0.100209326872	2.89268493652
9.005	-0.0732574462891	-0.103147135567	2.89268493652
9.01	-0.0586853027344	-0.0994707175567	2.89268493652
9.015	-0.0562438964844	-0.0906962042233	2.89268493652
9.02	-0.0489196777344	-0.0797981500813	2.89268493652
9.025	-0.0489196777344	-0.0690783148012	2.89268493652
9.03	-0.0452575683594	-0.0599174119019	2.8914642334
9.035	-0.0622711181641	-0.0536606331654	2.89268493652
9.04	-0.0622711181641	-0.0513874758642	2.89268493652
9.045	-0.0622711181641	-0.0522778374169	2.89268493652
9.05	-0.0659332275391	-0.0547287000278	2.89268493652
9.055	-0.0647125244141	-0.0577763514944	2.89268493652
9.06	-0.0683746337891	-0.0607803893461	2.8914642334
9.065	-0.0842437744141	-0.0642222889991	2.89268493652
9.07	-0.0842437744141	-0.0688774941242	2.89268493652
9.075	-0.0708160400391	-0.0733830321917	2.89512634277
9.08	-0.0634918212891	-0.0754067972276	2.89756774902
9.085	-0.0708160400391	-0.0748792312095	2.89756774902
9.09	-0.0599060058594	-0.0730288195146	2.8963470459
9.095	-0.0354919433594	-0.0690742830674	2.89756774902
9.1	-0.0111541748047	-0.0609360578304	2.89756774902
9.105	0.021728515625	-0.0473532745224	2.89878845215
9.11	0.0594177246094	-0.0277038922279	2.89756774902
9.115	0.0898590087891	-0.00229813665037	2.89878845215
9.12	0.117858886719	0.0270895991482	2.89756774902
9.125	0.119079589844	0.0570568788873	2.89878845215
9.13	0.0971832275391	0.0821735996004	2.89756774902
9.135	0.0849761962891	0.0977429812509	2.90000915527
9.14	0.0716247558594	0.102991580826	2.89756774902
9.145	0.0277557373047	0.0983770428041	2.90000915527
9.15	-0.00993347167969	0.0833610899325	2.9012298584
9.155	-0.0403747558594	0.0590950353786	2.9012298584
9.16	-0.0683746337891	0.0289184363753	2.90245056152
9.165	-0.0891265869141	-0.00354164309116	2.90245056152
9.17	-0.0879058837891	-0.0342850199268	2.90245056152
9.175	-0.0842437744141	-0.0591868707172	2.90489196777
9.18	-0.0951538085938	-0.0767298253976	2.9061126709
9.185	-0.0975952148438	-0.0883667183051	2.9061126709
9.19	-0.0939331054688	-0.0955112271692	2.90733337402
9.195	-0.102478027344	-0.0992969100154	2.90855407715
9.2	-0.128036499023	-0.102530623578	2.90855407715
9.205	-0.176788330078	-0.109897482937	2.90977478027
9.21	-0.180374145508	-0.123780186115	2.9109954834
9.215	-0.0634918212891	-0.135493582384	2.9109954834
9.22	0.306610107422	-0.116286613355	2.90733337402
9.225	0.96403503418	-0.0155497119488	2.90733337402
9.23	1.67143249512	0.217059290528	2.9061126709
9.235	2.14254760742	0.588930541264	2.90245056152
9.24	1.94044494629	1.02744924406	2.90489196777
9.245	1.19413757324	1.38648551246	2.90855407715
9.25	0.428375244141	1.52667302243	2.91213989258
9.255	-0.0172576904297	1.40772127822	2.91580200195
9.26	-0.164581298828	1.1000335105	2.91946411133
9.265	-0.231567382813	0.719059175435	2.91946411133
9.27	-0.270477294922	0.357570074789	2.92068481445
9.275	-0.282684326172	0.0651253356244	2.92068481445
9.28	-0.279022216797	-0.14215083969	2.92190551758
9.285	-0.275360107422	-0.269348292318	2.92068481445
9.29	-0.258346557617	-0.332398973515	2.92190551758
9.295	-0.240036010742	-0.349683551701	2.92190551758
9.3	-0.229125976563	-0.338292763118	2.92434692383
9.305	-0.208374023438	-0.312092366074	2.92434692383
9.31	-0.187698364258	-0.280071353541	2.9231262207
9.315	-0.167022705078	-0.247277697887	2.92190551758
9.32	-0.148712158203	-0.216449253845	2.92190551758
9.325	-0.126815795898	-0.188622690521	2.92190551758
9.33	-0.100036621094	-0.163306939495	2.92068481445
9.335	-0.0842437744141	-0.139688067234	2.92190551758
9.34	-0.0622711181641	-0.1175559505	2.92190551758
9.345	-0.0525817871094	-0.0970362008051	2.9231262207
9.35	-0.0428161621094	-0.0787377683641	2.92556762695
9.355	-0.0294647216797	-0.0629444415175	2.92556762695
9.36	-0.0196990966797	-0.0491645909968	2.92678833008
9.365	0.0107421875	-0.0359965010565	2.92678833008
9.37	0.0387420654297	-0.0210083400306	2.92556762695
9.375	0.0704040527344	-0.00244246380095	2.92678833008
9.38	0.109390258789	0.0204685050694	2.92678833008
9.385	0.154403686523	0.0484229295017	2.92556762695
9.39	0.221389770508	0.0827412289861	2.92678833008
9.395	0.296844482422	0.125594490013	2.92678833008
9.4	0.344375610352	0.176982365974	2.9280090332
9.405	0.417388916016	0.234319699082	2.92678833008
9.41	0.4794921875	0.295796853157	2.92556762695
9.415	0.50993347168	0.358468232545	2.92678833008
9.42	0.530609130859	0.416789735716	2.9280090332
9.425	0.574478149414	0.467545691377	2.92678833008
9.43	0.564712524414	0.509765776688	2.9280090332
9.435	0.516036987305	0.538874316902	2.92678833008
9.44	0.474609375	0.549310504343	2.9280090332
9.445	0.412506103516	0.539704952759	2.9280090332
9.45	0.335830688477	0.510836937143	2.92678833008
9.455	0.259078979492	0.464342359707	2.9280090332
9.46	0.183624267578	0.403658911839	2.93045043945
9.465	0.0728454589844	0.331582106693	2.92922973633
9.47	0.014404296875	0.250804330547	2.93045043945
9.475	-0.0135955810547	0.168858904766	2.9328918457
9.48	-0.0319061279297	0.0953363109623	2.93167114258
9.485	-0.0464782714844	0.0358697668638	2.9328918457
9.49	-0.0525817871094	-0.0081813877929	2.9328918457
9.495	-0.0622711181641	-0.0382047865811	2.93167114258
9.5	-0.0622711181641	-0.0569645681883	2.93533325195
9.505	-0.0634918212891	-0.0672263744385	2.93411254883
9.51	-0.0599060058594	-0.0713623962984	2.93411254883
9.515	-0.0452575683594	-0.0707721880248	2.93655395508
9.52	-0.0367126464844	-0.0660553410087	2.93655395508
9.525	-0.0342712402344	-0.0586025785932	2.93655395508
9.53	-0.0294647216797	-0.050338318	2.93655395508
9.535	-0.0233612060547	-0.0423622742389	2.9377746582
9.54	-0.0172576904297	-0.0349333442444	2.93655395508
9.545	-0.0172576904297	-0.0282996326839	2.93655395508
9.55	-0.0148162841797	-0.0228869269111	2.9377746582
9.555	-0.00749206542969	-0.0185103858626	2.93899536133
9.56	-0.0111541748047	-0.0148315886226	2.94021606445
9.565	-0.00627136230469	-0.0119495355711	2.94021606445
9.57	-0.000244140625	-0.00943153549266	2.93655395508
9.575	0.009521484375	-0.00632536863151	2.94021606445
9.58	0.0009765625	-0.00271824073621	2.9377746582
9.585	-0.0111541748047	-0.00042783949715	2.9377746582
9.59	-0.00505065917969	-0.000439513902535	2.94021606445
9.595	0.01318359375	-0.000736524510777	2.94021606445
9.6	0.0326385498047	0.00174235583537	2.93899536133
9.605	0.0716247558594	0.00956369970637	2.94021606445
9.61	0.103286743164	0.0245244063644	2.94021606445
9.615	0.131286621094	0.046247119406	2.94021606445
9.62	0.154403686523	0.0723974644135	2.94143676758
9.625	0.186065673828	0.100785095976	2.94021606445
9.63	0.207962036133	0.130032561644	2.93899536133
9.635	0.194610595703	0.157170886884	2.94021606445
9.64	0.198272705078	0.178211357999	2.94143676758
9.645	0.194610595703	0.191923304132	2.94143676758
9.65	0.137390136719	0.196692142264	2.94387817383
9.655	0.0716247558594	0.187700489036	2.94387817383
9.66	0.019287109375	0.162478598527	2.94509887695
9.665	-0.0184783935547	0.124323677615	2.94631958008
9.67	-0.0354919433594	0.0801650780524	2.94631958008
9.675	-0.0428161621094	0.0375524574215	2.9475402832
9.68	-0.0622711181641	0.00120523935969	2.94868469238
9.685	-0.0622711181641	-0.0274863901412	2.9475402832
9.69	-0.0671539306641	-0.0482412663316	2.94990539551
9.695	-0.0634918212891	-0.0615444769314	2.95112609863
9.7	-0.0659332275391	-0.0687280628917	2.95234680176
9.705	-0.0781402587891	-0.0721958210884	2.95112609863
9.71	-0.126815795898	-0.0766805753945	2.95356750488
9.715	-0.141464233398	-0.0865678132989	2.95600891113
9.72	-0.0391540527344	-0.0961648492171	2.95600891113
9.725	0.305389404297	-0.0791900882348	2.95356750488
9.73	0.96891784668	0.0148390393097	2.95112609863
9.735	1.7067565918	0.240565281963	2.94868469238
9.74	2.20831298828	0.611232269161	2.94868469238
9.745	2.0354309082	1.05712261372	2.94990539551
9.75	1.2599029541	1.42914029995	2.95356750488
9.755	0.461181640625	1.57980430406	2.95845031738
9.76	-0.0184783935547	1.46220525947	2.96333312988
9.765	-0.179153442383	1.14585754149	2.96455383301
9.77	-0.243698120117	0.750207951913	2.96577453613
9.775	-0.269256591797	0.37401843319	2.96699523926
9.78	-0.259567260742	0.0719281244498	2.96577453613
9.785	-0.255905151367	-0.138091550751	2.96455383301
9.79	-0.230346679688	-0.26211149325	2.96577453613
9.795	-0.226684570313	-0.318254664911	2.96577453613
9.8	-0.226684570313	-0.329138329549	2.96577453613
9.805	-0.218139648438	-0.31519135018	2.96577453613
9.81	-0.190139770508	-0.289525883281	2.96577453613
9.815	-0.173126220703	-0.25907066976	2.96455383301
9.82	-0.159698486328	-0.228398753931	2.96455383301
9.825	-0.136581420898	-0.200189875489	2.96089172363
9.83	-0.120712280273	-0.174913273152	2.96333312988
9.835	-0.104919433594	-0.152483892477	2.96333312988
9.84	-0.0866851806641	-0.132563285302	2.96333312988
9.845	-0.0732574462891	-0.114522061709	2.96333312988
9.85	-0.0708160400391	-0.0985415419984	2.96333312988
9.855	-0.0403747558594	-0.0842743325429	2.96333312988
9.86	-0.00146484375	-0.0687662049398	2.96455383301
9.865	0.00830078125	-0.0500646641932	2.96333312988
9.87	0.016845703125	-0.030153318121	2.96333312988
9.875	0.0387420654297	-0.0110721502687	2.96333312988
9.88	0.0581970214844	0.00739165327167	2.96333312988
9.885	0.109390258789	0.0273114946746	2.96333312988
9.89	0.184844970703	0.053373307194	2.96211242676
9.895	0.256713867188	0.0902855044351	2.96089172363
9.9	0.276168823242	0.136731986387	2.96089172363
9.905	0.351623535156	0.187888194491	2.96089172363
9.91	0.435623168945	0.243655261616	2.95967102051
9.915	0.50993347168	0.306058503396	2.95967102051
9.92	0.556167602539	0.373074455696	2.95967102051
9.925	0.584167480469	0.438978209438	2.95845031738
9.93	0.567153930664	0.496105302337	2.95845031738
9.935	0.554946899414	0.537533244108	2.95845031738
9.94	0.564712524414	0.562134944265	2.95845031738
9.945	0.530609130859	0.572686238246	2.95722961426
9.95	0.440505981445	0.567527752927	2.95722961426
9.955	0.330947875977	0.540654281645	2.95600891113
9.96	0.246948242188	0.489920100353	2.95722961426
9.965	0.158065795898	0.419908237508	2.95600891113
9.97	0.0826110839844	0.337777937411	2.95600891113
9.975	0.0350799560547	0.251588188894	2.95722961426
9.98	-0.00749206542969	0.169476128572	2.95600891113
9.985	-0.0379333496094	0.0969965784446	2.95600891113
9.99	-0.0440368652344	0.0375747509161	2.95600891113
9.995	-0.0476989746094	-0.00659656824968	2.95600891113
10	-0.0610504150391	-0.0363520621553	2.95600891113
10.005	-0.0622711181641	-0.0549840835191	2.95722961426
10.01	-0.0489196777344	-0.0648199565479	2.95600891113
10.015	-0.0403747558594	-0.0669450585681	2.95600891113
10.02	-0.0282440185547	-0.0629218458348	2.95722961426
10.025	-0.00627136230469	-0.0540901524621	2.95722961426
10.03	0.004638671875	-0.0414330884225	2.95600891113
10.035	-0.00382995605469	-0.0276006687332	2.95722961426
10.04	0.002197265625	-0.0157426525427	2.95600891113
10.045	0.009521484375	-0.00654049924089	2.95478820801
10.05	0.007080078125	0.000498599479485	2.95600891113
10.055	0.01806640625	0.00579442183536	2.95356750488
10.06	0.0301971435547	0.0107162807592	2.95356750488
10.065	0.0205078125	0.0157250613609	2.95234680176
10.07	0.0107421875	0.0190674690933	2.95112609863
10.075	0.0107421875	0.0196255710263	2.95112609863
10.08	0.007080078125	0.0180918867187	2.95356750488
10.085	0.007080078125	0.0154745634141	2.95112609863
10.09	0.009521484375	0.012750947318	2.94990539551
10.095	0.02294921875	0.0113223349258	2.95112609863
10.1	0.0326385498047	0.0125927430011	2.95112609863
10.105	0.0569763183594	0.0175923008276	2.94868469238
10.11	0.0777282714844	0.0271531472293	2.94990539551
10.115	0.0838317871094	0.04051201616	2.94990539551
10.12	0.110610961914	0.0560295531937	2.94990539551
10.125	0.173858642578	0.0754153806736	2.94990539551
10.13	0.207962036133	0.101770549674	2.9475402832
10.135	0.214065551758	0.133035878025	2.94990539551
10.14	0.218948364258	0.163308415363	2.94868469238
10.145	0.197052001953	0.187228532529	2.94868469238
10.15	0.164169311523	0.200298617141	2.94868469238
10.155	0.125183105469	0.199778238614	2.94868469238
10.16	0.0728454589844	0.185141552402	2.94868469238
10.165	0.0205078125	0.15722136638	2.94990539551
10.17	-0.00627136230469	0.119441565143	2.94868469238
10.175	-0.0294647216797	0.0778289611434	2.94990539551
10.18	-0.0538024902344	0.0375119758487	2.94990539551
10.185	-0.0647125244141	0.00145303118724	2.94868469238
10.19	-0.0720367431641	-0.0283251241964	2.94990539551
10.195	-0.0695953369141	-0.0505858625578	2.94990539551
10.2	-0.0805816650391	-0.0656611769139	2.94868469238
10.205	-0.0695953369141	-0.0748149987859	2.94990539551
10.21	-0.0720367431641	-0.0789732363508	2.94990539551
10.215	-0.124374389648	-0.0820401402265	2.94990539551
10.22	-0.171905517578	-0.0911385685847	2.94990539551
10.225	-0.121932983398	-0.106018966974	2.9475402832
10.23	0.0923004150391	-0.108696248339	2.9475402832
10.235	0.690139770508	-0.0552271808002	2.94509887695
10.24	1.44857788086	0.116018753644	2.94021606445
10.245	2.06953430176	0.439790737426	2.9377746582
10.25	2.15963745117	0.875268573349	2.93655395508
10.255	1.51922607422	1.29274295409	2.94021606445
10.26	0.705932617188	1.53187889926	2.94509887695
10.265	0.0728454589844	1.50539256307	2.94631958008
10.27	-0.146347045898	1.24711604707	2.94990539551
10.275	-0.227905273438	0.869309958637	2.94990539551
10.28	-0.254684448242	0.483561293711	2.95112609863
10.285	-0.260787963867	0.158572759369	2.94868469238
10.29	-0.272918701172	-0.078922088935	2.94990539551
10.295	-0.279022216797	-0.231244568301	2.94868469238
10.3	-0.274139404297	-0.314468084641	2.94509887695
10.305	-0.259567260742	-0.347509703299	2.94387817383
10.31	-0.236373901367	-0.347134490047	2.9426574707
10.315	-0.221801757813	-0.326909325574	2.94387817383
10.32	-0.207153320313	-0.297563616551	2.94143676758
10.325	-0.186477661133	-0.266169831573	2.94143676758
10.33	-0.173126220703	-0.236362489617	2.94143676758
10.335	-0.157257080078	-0.209917915866	2.94021606445
10.34	-0.131698608398	-0.186747807566	2.94021606445
10.345	-0.103698730469	-0.165081763251	2.93655395508
10.35	-0.0939331054688	-0.143940476791	2.93655395508
10.355	-0.0891265869141	-0.124543985289	2.93655395508
10.36	-0.0720367431641	-0.107902427832	2.93655395508
10.365	-0.0513610839844	-0.0929342914319	2.93533325195
10.37	-0.0306854248047	-0.0779013908687	2.93533325195
10.375	-0.00382995605469	-0.0615103102503	2.93655395508
10.38	0.019287109375	-0.0429778407652	2.93533325195
10.385	0.0326385498047	-0.0228242739375	2.93655395508
10.39	0.0777282714844	-0.00121395900488	2.93655395508
10.395	0.143417358398	0.0249315335844	2.93533325195
10.4	0.183624267578	0.0584785264926	2.93655395508
10.405	0.223831176758	0.0980701423692	2.93533325195
10.41	0.287078857422	0.141811028457	2.93533325195
10.415	0.344375610352	0.189854671426	2.93533325195
10.42	0.401596069336	0.241992920878	2.9328918457
10.425	0.45881652832	0.297086273418	2.93167114258
10.43	0.498947143555	0.353237105543	2.93411254883
10.435	0.506271362305	0.406226820269	2.9328918457
10.44	0.518478393555	0.450974003413	2.93167114258
10.445	0.51481628418	0.484705540276	2.93167114258
10.45	0.473388671875	0.505109183692	2.93045043945
10.455	0.397933959961	0.50772091629	2.93167114258
10.46	0.310272216797	0.488183585425	2.93045043945
10.465	0.216506958008	0.445463832657	2.93167114258
10.47	0.145858764648	0.383271394445	2.93045043945
10.475	0.0849761962891	0.309325808341	2.93045043945
10.48	0.0301971435547	0.231841422769	2.93045043945
10.485	-0.0111541748047	0.157144243409	2.92922973633
10.49	-0.0354919433594	0.0901364849388	2.92922973633
10.495	-0.0647125244141	0.0337741332285	2.93045043945
10.5	-0.0769195556641	-0.0113341633456	2.9280090332
10.505	-0.0842437744141	-0.0453960120157	2.9280090332
10.51	-0.0695953369141	-0.0683028769314	2.9280090332
10.515	-0.0622711181641	-0.0801451268557	2.9280090332
10.52	-0.0538024902344	-0.0826182557007	2.92678833008
10.525	-0.0391540527344	-0.0782321922201	2.9280090332
10.53	-0.0367126464844	-0.0694272248892	2.92678833008
10.535	-0.0403747558594	-0.0593416705563	2.92678833008
10.54	-0.0330505371094	-0.0503747405809	2.9280090332
10.545	-0.0221405029297	-0.042602487657	2.92678833008
10.55	-0.0172576904297	-0.0352822522365	2.92678833008
10.555	-0.00871276855469	-0.0281871091	2.92678833008
10.56	-0.00146484375	-0.0211639179971	2.92556762695
10.565	-0.00993347167969	-0.0147998443903	2.92556762695
10.57	-0.0148162841797	-0.0106065168129	2.92678833008
10.575	-0.00993347167969	-0.00887049773599	2.92434692383
10.58	-0.0123748779297	-0.00855072933416	2.92556762695
10.585	-0.0209197998047	-0.00938068896069	2.92678833008
10.59	-0.0172576904297	-0.0113550208228	2.92678833008
10.595	-0.0148162841797	-0.0134715377724	2.92556762695
10.6	-0.0196990966797	-0.0150984884189	2.92556762695
10.605	-0.0196990966797	-0.0165223271155	2.92434692383
10.61	0.00341796875	-0.0167423569422	2.92434692383
10.615	0.01806640625	-0.0135211147513	2.92434692383
10.62	0.0338592529297	-0.00605531769521	2.92190551758
10.625	0.0448455810547	0.00476004358572	2.92190551758
10.63	0.0581970214844	0.0175851498317	2.92190551758
10.635	0.0801696777344	0.0317844015521	2.92190551758
10.64	0.115417480469	0.0483085736782	2.92068481445
10.645	0.126403808594	0.0676995574217	2.92068481445
10.65	0.148300170898	0.0885721116446	2.92068481445
10.655	0.147079467773	0.108792509382	2.92068481445
10.66	0.143417358398	0.12568950751	2.92434692383
10.665	0.110610961914	0.135926450311	2.92190551758
10.67	0.0533905029297	0.135163442951	2.92190551758
10.675	0.01806640625	0.120708972903	2.92190551758
10.68	-0.0319061279297	0.0939839825471	2.92434692383
10.685	-0.0659332275391	0.0583457462341	2.9231262207
10.69	-0.0695953369141	0.0192863651325	2.9231262207
10.695	-0.0695953369141	-0.0161556691208	2.9231262207
10.7	-0.0793609619141	-0.0438980738727	2.9231262207
10.705	-0.0744781494141	-0.0634102369311	2.92190551758
10.71	-0.0769195556641	-0.0753867679008	2.9231262207
10.715	-0.0854644775391	-0.081841379613	2.9231262207
10.72	-0.0951538085938	-0.0857371904433	2.92190551758
10.725	-0.104919433594	-0.0893943397204	2.9231262207
10.73	-0.157257080078	-0.0960216967902	2.92190551758
10.735	-0.171905517578	-0.108842035299	2.92434692383
10.74	-0.0634918212891	-0.121107084998	2.92190551758
10.745	0.277389526367	-0.105783451072	2.92068481445
10.75	0.94091796875	-0.0126569686173	2.9182434082
10.755	1.65556335449	0.211462412945	2.91458129883
10.76	2.13896179199	0.577495144298	2.9109954834
10.765	1.89176940918	1.01194413113	2.9109954834
10.77	1.14302062988	1.3648254613	2.91702270508
10.775	0.406402587891	1.49800740419	2.92068481445
10.78	-0.0342712402344	1.37572956399	2.92068481445
10.785	-0.176788330078	1.06916282127	2.9231262207
10.79	-0.235153198242	0.692359751586	2.92434692383
10.795	-0.260787963867	0.337401914143	2.92434692383
10.8	-0.280242919922	0.0527320834757	2.9231262207
10.805	-0.277801513672	-0.147704851997	2.91702270508
10.81	-0.270477294922	-0.270063310512	2.9182434082
10.815	-0.263229370117	-0.330320608701	2.91458129883
10.82	-0.247360229492	-0.347178014149	2.91213989258
10.825	-0.225463867188	-0.336771548689	2.9109954834
10.83	-0.207153320313	-0.31127964602	2.90977478027
10.835	-0.195022583008	-0.279813361888	2.90977478027
10.84	-0.181594848633	-0.248631819757	2.90733337402
10.845	-0.165802001953	-0.22081710373	2.90733337402
10.85	-0.146347045898	-0.196816763158	2.90245056152
10.855	-0.114685058594	-0.175136933585	2.89878845215
10.86	-0.0902709960938	-0.153653872199	2.89756774902
10.865	-0.0842437744141	-0.132240592632	2.89756774902
10.87	-0.0744781494141	-0.112680101543	2.89756774902
10.875	-0.0489196777344	-0.0952821606015	2.8963470459
10.88	-0.0354919433594	-0.0787301135796	2.8963470459
10.885	-0.0233612060547	-0.0626708282695	2.89390563965
10.89	0.00830078125	-0.0466179686237	2.89268493652
10.895	0.0277557373047	-0.0291521045558	2.89268493652
10.9	0.0448455810547	-0.0101702405732	2.89390563965
10.905	0.0826110839844	0.0102709938175	2.89268493652
10.91	0.131286621094	0.0341762574644	2.89390563965
10.915	0.190948486328	0.0643594820794	2.89512634277
10.92	0.266403198242	0.103291629346	2.89268493652
10.925	0.360168457031	0.15338215678	2.8963470459
10.93	0.394271850586	0.213422680496	2.89512634277
10.935	0.452713012695	0.277445682405	2.89268493652
10.94	0.50016784668	0.34076775027	2.89390563965
10.945	0.506271362305	0.399416362102	2.89390563965
10.95	0.513595581055	0.448034435221	2.89268493652
10.955	0.508712768555	0.483480081399	2.8914642334
10.96	0.483154296875	0.504614995849	2.89268493652
10.965	0.430816650391	0.509813950945	2.89024353027
10.97	0.365051269531	0.497174263756	2.8914642334
10.975	0.296844482422	0.466464997166	2.89024353027
10.98	0.200637817383	0.418770519165	2.8914642334
10.985	0.116638183594	0.355625505071	2.89268493652
10.99	0.0509490966797	0.281315049676	2.89024353027
10.995	-0.000244140625	0.202928191814	2.8914642334
11	-0.0428161621094	0.127283464778	2.8914642334
11.005	-0.0695953369141	0.0594210055233	2.89268493652
11.01	-0.0842437744141	0.00279800488183	2.8914642334
11.015	-0.0951538085938	-0.0409389970051	2.89024353027
11.02	-0.0927124023438	-0.0718375715799	2.88902282715
11.025	-0.0793609619141	-0.090382543377	2.89024353027
11.03	-0.0818023681641	-0.0981979582641	2.8914642334
11.035	-0.0818023681641	-0.0989036160038	2.88902282715
11.04	-0.0659332275391	-0.0953629495372	2.88902282715
11.045	-0.0476989746094	-0.0880819151047	2.88902282715
11.05	-0.0342712402344	-0.0772709953584	2.88780212402
11.055	-0.0294647216797	-0.0644171401798	2.88902282715
11.06	-0.0270233154297	-0.0517548915885	2.88902282715
11.065	-0.0258026123047	-0.0410201073083	2.88780212402
11.07	-0.0319061279297	-0.0332704465737	2.88902282715
11.075	-0.0209197998047	-0.0284189293898	2.88902282715
11.08	-0.0196990966797	-0.0250996063018	2.88780212402
11.085	-0.0282440185547	-0.0229210875034	2.8914642334
11.09	-0.0294647216797	-0.0224940114966	2.88780212402
11.095	-0.0233612060547	-0.0232323765709	2.88902282715
11.1	-0.0270233154297	-0.0240697919748	2.88780212402
11.105	-0.0270233154297	-0.0248577088511	2.88780212402
11.11	-0.0270233154297	-0.0256448293492	2.88902282715
11.115	-0.0330505371094	-0.0265643596282	2.88780212402
11.12	-0.0415954589844	-0.0283296181427	2.88780212402
11.125	-0.0391540527344	-0.0311388833444	2.88902282715
11.13	-0.0306854248047	-0.0337214845827	2.88902282715
11.135	-0.0148162841797	-0.0340900048532	2.88780212402
11.14	0.01806640625	-0.0299298560486	2.88780212402
11.145	0.0448455810547	-0.0193087938384	2.88780212402
11.15	0.0533905029297	-0.0030881767146	2.88780212402
11.155	0.0826110839844	0.016264979787	2.8865814209
11.16	0.119079589844	0.03836012021	2.88780212402
11.165	0.126403808594	0.062777240561	2.8865814209
11.17	0.138610839844	0.0867519650647	2.88780212402
11.175	0.144638061523	0.1078273156	2.8865814209
11.18	0.131286621094	0.124091042475	2.8865814209
11.185	0.103286743164	0.132741763591	2.8865814209
11.19	0.0630798339844	0.130997909054	2.88780212402
11.195	0.016845703125	0.117329480665	2.8865814209
11.2	-0.0245819091797	0.092286922726	2.8865814209
11.205	-0.0476989746094	0.0592499055075	2.88780212402
11.21	-0.0586853027344	0.0238265306441	2.8865814209
11.215	-0.0634918212891	-0.00853571111648	2.88780212402
11.22	-0.0647125244141	-0.0344273351037	2.8865814209
11.225	-0.0634918212891	-0.0526369675908	2.88780212402
11.23	-0.0659332275391	-0.0637646432384	2.88780212402
11.235	-0.0732574462891	-0.0698627860408	2.88780212402
11.24	-0.0781402587891	-0.0733757080044	2.8865814209
11.245	-0.0914916992188	-0.0763732683376	2.88780212402
11.25	-0.146347045898	-0.082551917026	2.88780212402
11.255	-0.163360595703	-0.0956168788148	2.89024353027
11.26	-0.0683746337891	-0.109376206554	2.88902282715
11.265	0.209182739258	-0.100154958345	2.8865814209
11.27	0.836242675781	-0.0224154307607	2.88536071777
11.275	1.55210876465	0.178360391413	2.88047790527
11.28	2.06343078613	0.521162363581	2.87803649902
11.285	1.91366577148	0.943849918696	2.8816986084
11.29	1.22457885742	1.30581035165	2.8865814209
11.295	0.50016784668	1.46720793686	2.88780212402
11.3	0.005859375	1.3787550809	2.8914642334
11.305	-0.154815673828	1.09730738295	2.89268493652
11.31	-0.214477539063	0.732497108954	2.89268493652
11.315	-0.248580932617	0.379515422095	2.89390563965
11.32	-0.255905151367	0.0912492136499	2.89268493652
11.325	-0.260787963867	-0.114470434622	2.89268493652
11.33	-0.270477294922	-0.24286717365	2.89390563965
11.335	-0.266815185547	-0.310493153717	2.89390563965
11.34	-0.248580932617	-0.335020425492	2.89268493652
11.345	-0.230346679688	-0.331132799583	2.89390563965
11.35	-0.224243164063	-0.311182649013	2.89268493652
11.355	-0.204788208008	-0.284712294365	2.8914642334
11.36	-0.180374145508	-0.256716908971	2.89024353027
11.365	-0.171905517578	-0.229596710459	2.88414001465
11.37	-0.153594970703	-0.205159044728	2.8816986084
11.375	-0.126815795898	-0.183234653973	2.8816986084
11.38	-0.109802246094	-0.162491661805	2.87803649902
11.385	-0.102478027344	-0.143014359931	2.8768157959
11.39	-0.0914916992188	-0.125786188526	2.8768157959
11.395	-0.0756988525391	-0.110763163267	2.87559509277
11.4	-0.0720367431641	-0.0974639490053	2.87559509277
11.405	-0.0379333496094	-0.0848269100778	2.8768157959
11.41	-0.0148162841797	-0.0704655410019	2.87559509277
11.415	-0.000244140625	-0.0535278345825	2.8768157959
11.42	0.025390625	-0.0348550333052	2.87803649902
11.425	0.0630798339844	-0.0139984647947	2.87803649902
11.43	0.103286743164	0.0105982401722	2.88047790527
11.435	0.155624389648	0.0403583641483	2.8816986084
11.44	0.214065551758	0.0765460413817	2.88291931152
11.445	0.309051513672	0.1214055527	2.88291931152
11.45	0.366271972656	0.176351603956	2.88291931152
11.455	0.422271728516	0.238363906565	2.8816986084
11.46	0.45637512207	0.301788194177	2.8816986084
11.465	0.484375	0.361224963042	2.8816986084
11.47	0.48193359375	0.411776914544	2.8816986084
