Vernier Format 2
Untitled.cmbl 3/17/2022 11:41:28 .
Latest
Time	Potential 1	EKG	Potential 2
t	Pot 1	EKG	Pot 2
s	mV	mV	V

0	0.299285888672	0.0138065973855	2.9280090332
0.005	0.220169067383	0.0558191486761	2.93167114258
0.01	0.127624511719	0.106189021628	2.93167114258
0.015	0.0485076904297	0.135536418265	2.9328918457
0.02	0.005859375	0.135593016761	2.93167114258
0.025	-0.0135955810547	0.112751417312	2.93411254883
0.03	-0.0354919433594	0.0780905538202	2.93655395508
0.035	-0.0671539306641	0.039634349998	2.93411254883
0.04	-0.0695953369141	0.00236377310578	2.93533325195
0.045	-0.0622711181641	-0.0287942605073	2.93533325195
0.05	-0.0574645996094	-0.0504116998617	2.93533325195
0.055	-0.0342712402344	-0.0614966548731	2.93533325195
0.06	-0.0196990966797	-0.0623222538587	2.93655395508
0.065	-0.0245819091797	-0.055760653519	2.9377746582
0.07	-0.0282440185547	-0.0467239382877	2.94021606445
0.075	-0.0258026123047	-0.0385879569785	2.94021606445
0.08	-0.00993347167969	-0.0316078922633	2.94143676758
0.085	0.007080078125	-0.0241226970386	2.94143676758
0.09	0.007080078125	-0.0154684911471	2.94387817383
0.095	0.004638671875	-0.0071640487156	2.94143676758
0.1	-0.00505065917969	-0.00123625905536	2.94387817383
0.105	-0.00627136230469	0.00136591290032	2.94387817383
0.11	-0.00382995605469	0.00140534754325	2.94509887695
0.115	-0.000244140625	0.000511479683094	2.94509887695
0.12	0.004638671875	-7.73516287056E-006	2.94509887695
0.125	0.00830078125	0.000537983906823	2.94509887695
0.13	0.016845703125	0.0024640754862	2.94509887695
0.135	0.0509490966797	0.00724421085233	2.94509887695
0.14	0.0849761962891	0.0176563609178	2.94509887695
0.145	0.116638183594	0.0350904181322	2.94509887695
0.15	0.144638061523	0.0585435426195	2.94631958008
0.155	0.167831420898	0.0857431241103	2.94631958008
0.16	0.186065673828	0.114038962864	2.9475402832
0.165	0.173858642578	0.139841779231	2.9475402832
0.17	0.177520751953	0.159541028961	2.94868469238
0.175	0.171417236328	0.172096603253	2.95112609863
0.18	0.132507324219	0.176632808464	2.95112609863
0.185	0.0777282714844	0.169989345216	2.95478820801
0.19	0.0277557373047	0.149919063679	2.95600891113
0.195	-0.0196990966797	0.11762194208	2.95600891113
0.2	-0.0476989746094	0.0772958466999	2.95600891113
0.205	-0.0586853027344	0.0351828997877	2.95722961426
0.21	-0.0538024902344	-0.00211792816089	2.95967102051
0.215	-0.0525817871094	-0.0301690794649	2.95967102051
0.22	-0.0562438964844	-0.048325986258	2.96089172363
0.225	-0.0525817871094	-0.0583789656694	2.96089172363
0.23	-0.0599060058594	-0.0627602259031	2.96211242676
0.235	-0.0854644775391	-0.0652294809912	2.96211242676
0.24	-0.141464233398	-0.071582109582	2.96211242676
0.245	-0.169464111328	-0.0863098784573	2.96333312988
0.25	-0.0720367431641	-0.103111208979	2.96211242676
0.255	0.248168945313	-0.0953630591197	2.95967102051
0.26	0.91535949707	-0.0121543853959	2.95722961426
0.265	1.65922546387	0.203457381115	2.95478820801
0.27	2.25584411621	0.571333922755	2.95112609863
0.275	2.23265075684	1.03450502614	2.95112609863
0.28	1.48023986816	1.44974861087	2.95356750488
0.285	0.625595092773	1.65488072043	2.95845031738
0.29	0.0289764404297	1.57773920871	2.96211242676
0.295	-0.153594970703	1.27311194458	2.96211242676
0.3	-0.227905273438	0.865020564067	2.96333312988
0.305	-0.257125854492	0.464721745591	2.96333312988
0.31	-0.257125854492	0.135997363666	2.96333312988
0.315	-0.258346557617	-0.0982715532663	2.96333312988
0.32	-0.247360229492	-0.242462934748	2.95967102051
0.325	-0.226684570313	-0.313834718488	2.95600891113
0.33	-0.224243164063	-0.333695840519	2.95967102051
0.335	-0.212036132813	-0.322816280663	2.95600891113
0.34	-0.192581176758	-0.296689268732	2.95600891113
0.345	-0.163360595703	-0.264178403081	2.95600891113
0.35	-0.153594970703	-0.230483025144	2.95112609863
0.355	-0.136581420898	-0.199388928061	2.95234680176
0.36	-0.113464355469	-0.172225210474	2.95112609863
0.365	-0.0927124023438	-0.148131892113	2.95112609863
0.37	-0.0732574462891	-0.126115932383	2.94990539551
0.375	-0.0476989746094	-0.105252818921	2.95112609863
0.38	-0.0258026123047	-0.0845407738971	2.94868469238
0.385	-0.0172576904297	-0.0641314737203	2.9475402832
0.39	0.004638671875	-0.0448285157561	2.94868469238
0.395	0.016845703125	-0.0266540290777	2.94990539551
0.4	0.0387420654297	-0.00924172367302	2.94990539551
0.405	0.0777282714844	0.00896456114322	2.94868469238
0.41	0.125183105469	0.0309980833845	2.94990539551
0.415	0.173858642578	0.0592704516826	2.94990539551
0.42	0.233520507813	0.0948266064802	2.94631958008
0.425	0.306610107422	0.138525802534	2.9475402832
0.43	0.365051269531	0.190357970643	2.9475402832
0.435	0.425933837891	0.248197958436	2.9475402832
0.44	0.491622924805	0.30966321126	2.94509887695
0.445	0.533050537109	0.372349867194	2.94509887695
0.45	0.550064086914	0.431707312997	2.94509887695
0.455	0.584167480469	0.483528461585	2.94509887695
0.46	0.578063964844	0.525730556639	2.94387817383
0.465	0.559829711914	0.555583388371	2.94509887695
0.47	0.518478393555	0.569982506675	2.94387817383
0.475	0.4794921875	0.56766936594	2.94387817383
0.48	0.410064697266	0.548856335144	2.94387817383
0.485	0.317520141602	0.512926591008	2.9426574707
0.49	0.233520507813	0.4595922892	2.94387817383
0.495	0.148300170898	0.39158911896	2.94387817383
0.5	0.0777282714844	0.313926656072	2.9426574707
0.505	0.0338592529297	0.233378129936	2.94143676758
0.51	0.009521484375	0.15784772946	2.94387817383
0.515	-0.0123748779297	0.0934433527594	2.94387817383
0.52	-0.0342712402344	0.0422421494633	2.9426574707
0.525	-0.0403747558594	0.00367052139518	2.94021606445
0.53	-0.0452575683594	-0.0233707161171	2.94143676758
0.535	-0.0501403808594	-0.0407086473797	2.94021606445
0.54	-0.0428161621094	-0.0504129332421	2.94021606445
0.545	-0.0330505371094	-0.053671182343	2.93899536133
0.55	-0.0270233154297	-0.051641018305	2.93899536133
0.555	-0.0135955810547	-0.0457585238124	2.9377746582
0.56	-0.00505065917969	-0.0371557559353	2.93655395508
0.565	-0.002685546875	-0.0272856312926	2.93533325195
0.57	-0.00749206542969	-0.0182228385625	2.93655395508
0.575	-0.00146484375	-0.0112857466242	2.93533325195
0.58	0.002197265625	-0.00617088301983	2.93533325195
0.585	-0.00627136230469	-0.0026707921714	2.93411254883
0.59	-0.00627136230469	-0.00122313474835	2.93411254883
0.595	-0.00627136230469	-0.00144269445059	2.93533325195
0.6	-0.0160369873047	-0.00289220307805	2.93411254883
0.605	-0.0160369873047	-0.00558015361718	2.93411254883
0.61	0.002197265625	-0.00799051196669	2.93533325195
0.615	0.0265350341797	-0.00701446736566	2.93411254883
0.62	0.0472869873047	-0.000509060952064	2.93411254883
0.625	0.0618591308594	0.0112249631343	2.9328918457
0.63	0.0777282714844	0.0263991142026	2.9328918457
0.635	0.105728149414	0.0438931862614	2.9328918457
0.64	0.139831542969	0.0641887842841	2.93167114258
0.645	0.151962280273	0.0871149166175	2.93167114258
0.65	0.159286499023	0.110134638674	2.93167114258
0.655	0.161727905273	0.130300622316	2.93167114258
0.66	0.150741577148	0.145398243053	2.93045043945
0.665	0.120300292969	0.152911936026	2.93167114258
0.67	0.0704040527344	0.14969203454	2.93167114258
0.675	0.0289764404297	0.133868330715	2.93167114258
0.68	-0.0209197998047	0.106339958772	2.93167114258
0.685	-0.0574645996094	0.069934206599	2.93167114258
0.69	-0.0732574462891	0.0294781911099	2.93411254883
0.695	-0.0866851806641	-0.00926698585382	2.93411254883
0.7	-0.0914916992188	-0.0422103891615	2.9328918457
0.705	-0.0939331054688	-0.0673969937211	2.9328918457
0.71	-0.0914916992188	-0.0844554557395	2.9328918457
0.715	-0.0879058837891	-0.0940906008173	2.93167114258
0.72	-0.0988159179688	-0.0983567541715	2.9328918457
0.725	-0.136581420898	-0.10177851998	2.93167114258
0.73	-0.188919067383	-0.11055570767	2.93411254883
0.735	-0.154815673828	-0.125344927039	2.9328918457
0.74	0.014404296875	-0.131823429541	2.93167114258
0.745	0.529388427734	-0.0920759184005	2.92922973633
0.75	1.26234436035	0.0522049068938	2.92678833008
0.755	1.97454833984	0.345510312464	2.92190551758
0.76	2.20098876953	0.76795419175	2.9231262207
0.765	1.63244628906	1.20347713698	2.92434692383
0.77	0.813049316406	1.48525676136	2.9280090332
0.775	0.138610839844	1.50648606222	2.9328918457
0.78	-0.126815795898	1.28338514928	2.93167114258
0.785	-0.226684570313	0.921078428992	2.93533325195
0.79	-0.264373779297	0.533966503598	2.93655395508
0.795	-0.283905029297	0.19710227715	2.9328918457
0.8	-0.292449951172	-0.0568237880504	2.93411254883
0.805	-0.283905029297	-0.224398787077	2.9328918457
0.81	-0.280242919922	-0.318019995948	2.93411254883
0.815	-0.265594482422	-0.35658633464	2.9328918457
0.82	-0.247360229492	-0.358597839351	2.93045043945
0.825	-0.221801757813	-0.33872287696	2.92678833008
0.83	-0.208374023438	-0.307932612298	2.92556762695
0.835	-0.195022583008	-0.274421834456	2.92190551758
0.84	-0.173126220703	-0.242895308972	2.9182434082
0.845	-0.157257080078	-0.214793929451	2.91580200195
0.85	-0.140243530273	-0.190303419268	2.91213989258
0.855	-0.124374389648	-0.169074068755	2.9109954834
0.86	-0.114685058594	-0.150669993135	2.90855407715
0.865	-0.101257324219	-0.134805984734	2.90977478027
0.87	-0.0781402587891	-0.120366244299	2.90855407715
0.875	-0.0428161621094	-0.104909627674	2.90733337402
0.88	-0.0221405029297	-0.0865256994326	2.9061126709
0.885	-0.00505065917969	-0.0657688581117	2.9061126709
0.89	0.02294921875	-0.04385293026	2.90733337402
0.895	0.0424041748047	-0.0211417873272	2.9061126709
0.9	0.0691833496094	0.00209166909395	2.9061126709
0.905	0.116638183594	0.0268522132029	2.9061126709
0.91	0.176300048828	0.056160838613	2.90489196777
0.915	0.235961914063	0.092744132323	2.90733337402
0.92	0.309051513672	0.137783266886	2.90733337402
0.925	0.373596191406	0.191143523236	2.9061126709
0.93	0.423492431641	0.250378472988	2.90733337402
0.935	0.466064453125	0.311117302258	2.9061126709
0.94	0.49528503418	0.368965440955	2.90733337402
0.945	0.50260925293	0.419715146715	2.9061126709
0.95	0.480712890625	0.458622692991	2.90489196777
0.955	0.457595825195	0.481777829637	2.9061126709
0.96	0.403961181641	0.487295740547	2.90489196777
0.965	0.324844360352	0.47345648436	2.90489196777
0.97	0.243286132813	0.43911456197	2.90489196777
0.975	0.162948608398	0.386145424171	2.90489196777
0.98	0.0849761962891	0.319017775567	2.9012298584
0.985	0.0277557373047	0.243773862255	2.9012298584
0.99	-0.0135955810547	0.167638835411	2.9012298584
0.995	-0.0501403808594	0.0969737499589	2.89878845215
1	-0.0769195556641	0.0355237421969	2.89756774902
1.005	-0.0866851806641	-0.0146621057399	2.8963470459
1.01	-0.0927124023438	-0.0524618775627	2.89512634277
1.015	-0.0963745117188	-0.07837047799	2.89512634277
1.02	-0.0927124023438	-0.094096999403	2.89512634277
1.025	-0.0781402587891	-0.101072699715	2.89390563965
1.03	-0.0732574462891	-0.100718761489	2.89268493652
1.035	-0.0695953369141	-0.0955336437414	2.89268493652
1.04	-0.0440368652344	-0.0871870973803	2.8914642334
1.045	-0.0391540527344	-0.0760735772803	2.89268493652
1.05	-0.0525817871094	-0.0646398538222	2.8914642334
1.055	-0.0634918212891	-0.0566754212725	2.89268493652
1.06	-0.0634918212891	-0.0535129276106	2.8914642334
1.065	-0.0562438964844	-0.053464592088	2.8914642334
1.07	-0.0476989746094	-0.0538938445558	2.89268493652
1.075	-0.0452575683594	-0.0532434002898	2.89024353027
1.08	-0.0513610839844	-0.0518440932123	2.8914642334
1.085	-0.0489196777344	-0.0506725758787	2.8914642334
1.09	-0.0489196777344	-0.0498855783867	2.8914642334
1.095	-0.0538024902344	-0.0495455413785	2.89268493652
1.1	-0.0525817871094	-0.0498822637304	2.8914642334
1.105	-0.0367126464844	-0.0498702445969	2.89024353027
1.11	-0.00627136230469	-0.0467641593489	2.8914642334
1.115	0.01318359375	-0.038271344931	2.89024353027
1.12	0.0289764404297	-0.024768578385	2.89024353027
1.125	0.0716247558594	-0.00697144310594	2.89024353027
1.13	0.0861968994141	0.0149893385911	2.88902282715
1.135	0.0861968994141	0.0382574129399	2.89024353027
1.14	0.103286743164	0.0593354615409	2.88902282715
1.145	0.104507446289	0.0770800390272	2.88902282715
1.15	0.0861968994141	0.0899671305147	2.8914642334
1.155	0.0728454589844	0.0958382221076	2.89024353027
1.16	0.0363006591797	0.0934129549424	2.89024353027
1.165	-0.00993347167969	0.0812344200685	2.89024353027
1.17	-0.0342712402344	0.0594320296809	2.89024353027
1.175	-0.0538024902344	0.0316402778374	2.89024353027
1.18	-0.0793609619141	0.00192739212122	2.8914642334
1.185	-0.0975952148438	-0.0273478023107	2.88902282715
1.19	-0.0975952148438	-0.0538670811621	2.8914642334
1.195	-0.0975952148438	-0.0749786174592	2.8914642334
1.2	-0.107360839844	-0.0899854128147	2.89024353027
1.205	-0.0963745117188	-0.0996148524614	2.89024353027
1.21	-0.0988159179688	-0.104372243271	2.89268493652
1.215	-0.128036499023	-0.106922064683	2.89268493652
1.22	-0.182815551758	-0.113251344039	2.89268493652
1.225	-0.187698364258	-0.126898846653	2.8914642334
1.23	-0.0830230712891	-0.13977590786	2.88902282715
1.235	0.267623901367	-0.124289444794	2.88902282715
1.24	0.95068359375	-0.0290195392558	2.88536071777
1.245	1.68356323242	0.200915534198	2.88047790527
1.25	2.13041687012	0.574394362972	2.87925720215
1.255	1.89054870605	1.01352459646	2.88047790527
1.26	1.15034484863	1.36824764246	2.88536071777
1.265	0.403961181641	1.50221069732	2.88780212402
1.27	-0.0403747558594	1.37937245588	2.8914642334
1.275	-0.188919067383	1.07062251672	2.89268493652
1.28	-0.244918823242	0.690625073179	2.89268493652
1.285	-0.268035888672	0.332621314583	2.89268493652
1.29	-0.277801513672	0.046329014235	2.89268493652
1.295	-0.285125732422	-0.154171317492	2.8914642334
1.3	-0.282684326172	-0.276493980934	2.89268493652
1.305	-0.264373779297	-0.337063978775	2.89024353027
1.31	-0.243698120117	-0.353330618443	2.89024353027
1.315	-0.229125976563	-0.341382138202	2.88780212402
1.32	-0.214477539063	-0.314787893697	2.88536071777
1.325	-0.199905395508	-0.283202048674	2.88291931152
1.33	-0.187698364258	-0.252406351587	2.8816986084
1.335	-0.165802001953	-0.224873280341	2.8816986084
1.34	-0.141464233398	-0.200319294408	2.87925720215
1.345	-0.130477905273	-0.177998909555	2.87803649902
1.35	-0.117126464844	-0.158143445992	2.87925720215
1.355	-0.0988159179688	-0.140580764492	2.8768157959
1.36	-0.0756988525391	-0.124014738912	2.8768157959
1.365	-0.0489196777344	-0.106782829472	2.8768157959
1.37	-0.0294647216797	-0.0879685190912	2.87559509277
1.375	-0.00627136230469	-0.067747409313	2.87803649902
1.38	-0.00382995605469	-0.0474157417323	2.87803649902
1.385	0.009521484375	-0.0288703159195	2.87559509277
1.39	0.0533905029297	-0.011257285953	2.87803649902
1.395	0.105728149414	0.00972496679671	2.87803649902
1.4	0.150741577148	0.037421615337	2.87925720215
1.405	0.220169067383	0.0730800469247	2.8816986084
1.41	0.290740966797	0.117812019925	2.87925720215
1.415	0.355285644531	0.171443800857	2.88047790527
1.42	0.430816650391	0.232251208334	2.8816986084
1.425	0.498947143555	0.29845636316	2.88047790527
1.43	0.50993347168	0.365376709169	2.87925720215
1.435	0.491622924805	0.423612092453	2.8816986084
1.44	0.473388671875	0.464806335202	2.88291931152
1.445	0.45393371582	0.486593529282	2.88414001465
1.45	0.417388916016	0.490493728451	2.8865814209
1.455	0.377182006836	0.478753127468	2.88780212402
1.46	0.285934448242	0.451881723753	2.8865814209
1.465	0.173858642578	0.407083406516	2.88780212402
1.47	0.0826110839844	0.34297557585	2.88780212402
1.475	0.0375213623047	0.265531571581	2.88902282715
1.48	-0.0172576904297	0.184922588881	2.88902282715
1.485	-0.0659332275391	0.108251908405	2.89024353027
1.49	-0.0866851806641	0.0396905978846	2.89024353027
1.495	-0.103698730469	-0.0171760039687	2.89268493652
1.5	-0.118347167969	-0.0610003849386	2.8914642334
1.505	-0.117126464844	-0.0924037215153	2.8914642334
1.51	-0.102478027344	-0.111790839958	2.89268493652
1.515	-0.0988159179688	-0.120114013854	2.89268493652
1.52	-0.0975952148438	-0.120390000921	2.89268493652
1.525	-0.0975952148438	-0.116375789733	2.89268493652
1.53	-0.0975952148438	-0.110936024491	2.89390563965
1.535	-0.0975952148438	-0.105798939016	2.8914642334
1.54	-0.0818023681641	-0.101030094719	2.8914642334
1.545	-0.0732574462891	-0.095471039864	2.8914642334
1.55	-0.0659332275391	-0.0886943294837	2.8914642334
1.555	-0.0683746337891	-0.081611923669	2.89268493652
1.56	-0.0599060058594	-0.0751827701348	2.89268493652
1.565	-0.0695953369141	-0.0700395144572	2.89024353027
1.57	-0.0720367431641	-0.0670936757011	2.88902282715
1.575	-0.0695953369141	-0.0663317536518	2.88902282715
1.58	-0.0683746337891	-0.0666155642078	2.89024353027
1.585	-0.0695953369141	-0.0671923683814	2.89268493652
1.59	-0.0695953369141	-0.0678631475726	2.89268493652
1.595	-0.0634918212891	-0.068231114876	2.89268493652
1.6	-0.0403747558594	-0.066752691371	2.89390563965
1.605	-0.00627136230469	-0.060651318682	2.89268493652
1.61	0.00830078125	-0.0485170191476	2.89512634277
1.615	0.02294921875	-0.0320612724759	2.8963470459
1.62	0.0581970214844	-0.0128669166728	2.8963470459
1.625	0.0910797119141	0.00957722562816	2.8963470459
1.63	0.104507446289	0.0347574635531	2.89756774902
1.635	0.119079589844	0.0600649759569	2.8963470459
1.64	0.141052246094	0.0837427211916	2.8963470459
1.645	0.144638061523	0.105114674589	2.89756774902
1.65	0.0910797119141	0.120282639748	2.89756774902
1.655	0.0472869873047	0.122804201757	2.90000915527
1.66	0.009521484375	0.11038740264	2.9012298584
1.665	-0.0258026123047	0.0857807890404	2.9012298584
1.67	-0.0501403808594	0.053595600919	2.90367126465
1.675	-0.0683746337891	0.0189059865931	2.90489196777
1.68	-0.0818023681641	-0.0140387060984	2.90733337402
1.685	-0.0830230712891	-0.042182416156	2.9061126709
1.69	-0.0842437744141	-0.063560049243	2.90977478027
1.695	-0.0891265869141	-0.0780594805675	2.90977478027
1.7	-0.0879058837891	-0.0869510943897	2.9109954834
1.705	-0.0914916992188	-0.0917220168613	2.90977478027
1.71	-0.126815795898	-0.0954900591535	2.91213989258
1.715	-0.173126220703	-0.10363049833	2.91458129883
1.72	-0.134140014648	-0.116523030282	2.91458129883
1.725	0.0521697998047	-0.119318244664	2.91213989258
1.73	0.596374511719	-0.0725384186077	2.91213989258
1.735	1.33901977539	0.0830555282409	2.90977478027
1.74	2.03787231445	0.389317874377	2.9061126709
1.745	2.27163696289	0.82268925016	2.9061126709
1.75	1.7091217041	1.26646304545	2.9061126709
1.755	0.876373291016	1.55393265268	2.9109954834
1.76	0.193389892578	1.57719451585	2.91702270508
1.765	-0.103698730469	1.35108740216	2.92068481445
1.77	-0.210815429688	0.980201280079	2.92434692383
1.775	-0.248580932617	0.581219253709	2.92556762695
1.78	-0.269256591797	0.232662684107	2.92434692383
1.785	-0.272918701172	-0.0305945992862	2.92556762695
1.79	-0.264373779297	-0.20422001049	2.92678833008
1.795	-0.263229370117	-0.30105251843	2.92678833008
1.8	-0.244918823242	-0.34090462596	2.92678833008
1.805	-0.225463867188	-0.342739594245	2.92678833008
1.81	-0.196243286133	-0.321550985699	2.92678833008
1.815	-0.185256958008	-0.288848667685	2.9280090332
1.82	-0.170684814453	-0.253484358375	2.92678833008
1.825	-0.143905639648	-0.220249857251	2.92678833008
1.83	-0.129257202148	-0.190376750324	2.92678833008
1.835	-0.118347167969	-0.164579030453	2.92678833008
1.84	-0.103698730469	-0.143187900324	2.9280090332
1.845	-0.0914916992188	-0.125493280954	2.92678833008
1.85	-0.0634918212891	-0.10978808118	2.92678833008
1.855	-0.0379333496094	-0.0936337786166	2.9280090332
1.86	-0.0172576904297	-0.0756359032024	2.92678833008
1.865	-0.000244140625	-0.0561808989019	2.92678833008
1.87	0.0277557373047	-0.0357840167466	2.9280090332
1.875	0.0557556152344	-0.0140277670656	2.92922973633
1.88	0.0861968994141	0.00966178196019	2.9280090332
1.885	0.133728027344	0.0362237889213	2.92922973633
1.89	0.186065673828	0.0675012272734	2.9280090332
1.895	0.235961914063	0.104649594069	2.93045043945
1.9	0.301727294922	0.14788238334	2.93045043945
